ppg_wave, bcg_raw
57.0,1458.0
56.75268817204301,1458.0
56.505376344086024,1469.0
56.25806451612903,1474.0
56.01075268817204,1501.0
55.763440860215056,1489.0
55.516129032258064,1480.0
55.26881720430107,1480.0
55.02150537634409,1472.0
54.774193548387096,1471.0
54.52688172043011,1476.0
54.27956989247312,1474.0
54.03225806451613,1469.0
53.78494623655914,1453.0
53.53763440860215,1443.0
53.29032258064516,1433.0
53.043010752688176,1438.0
52.795698924731184,1441.0
52.54838709677419,1440.0
52.30107526881721,1433.0
52.053763440860216,1440.5
51.80645161290323,1448.0
51.55913978494624,1457.0
51.31182795698925,1465.0
51.064516129032256,1473.0
50.81720430107527,1474.0
50.56989247311828,1480.0
50.322580645161295,1481.0
50.075268817204304,1492.0
49.82795698924731,1496.0
49.58064516129033,1495.0
49.333333333333336,1492.0
46.55555555555556,1498.0
43.77777777777778,1485.0
41.0,1477.0
38.857142857142854,1480.0
36.714285714285715,1489.0
34.57142857142857,1488.0
35.547619047619044,1479.0
36.523809523809526,1458.0
37.5,1444.0
41.57142857142857,1433.0
45.642857142857146,1422.0
49.714285714285715,1408.0
55.285714285714285,1396.0
60.85714285714286,1389.0
66.42857142857143,1387.0
72.0,1380.0
77.16666666666667,1386.0
82.33333333333333,1451.0
87.5,1543.0
88.95238095238095,1605.0
90.40476190476191,1585.0
91.85714285714286,1549.0
91.34920634920636,1521.0
90.84126984126983,1489.0
90.33333333333333,1473.0
88.79365079365078,1447.0
87.25396825396825,1413.0
85.71428571428571,1355.0
83.41071428571428,1336.0
81.10714285714286,1317.0
78.80357142857143,1277.0
76.5,1242.0
71.0,1206.0
65.5,1237.0
62.80357142857143,1291.0
60.10714285714286,1335.0
57.410714285714285,1398.5
54.714285714285715,1501.0
52.08730158730159,1596.0
49.46031746031746,1685.0
46.833333333333336,1756.0
45.07936507936508,1806.0
43.32539682539682,1873.0
41.57142857142857,1941.0
39.720238095238095,1988.0
37.86904761904762,2016.0
36.01785714285714,1999.0
34.166666666666664,1971.0
31.61111111111111,1954.0
29.055555555555554,1937.0
26.5,1894.0
24.428571428571427,1870.0
22.357142857142858,1841.0
20.285714285714285,1812.0
20.023809523809522,1813.0
19.761904761904763,1823.0
19.5,1883.0
26.333333333333332,1909.0
33.166666666666664,1904.0
40.0,1912.0
47.79166666666667,1908.0
55.583333333333336,1883.0
63.375,1836.0
71.16666666666667,1795.0
74.22222222222223,1720.0
77.27777777777777,1619.0
80.33333333333333,1522.0
78.26984126984127,1480.5
76.2063492063492,1439.0
74.14285714285714,1346.0
71.59523809523809,1156.0
69.04761904761905,1021.0
66.5,984.0
64.52380952380952,950.0
62.547619047619044,951.0
60.57142857142857,962.0
59.05357142857143,936.0
57.535714285714285,916.0
56.01785714285714,889.0
54.5,842.0
52.333333333333336,805.0
50.166666666666664,849.0
48.0,926.0
46.42857142857143,994.0
44.857142857142854,1012.0
43.285714285714285,1021.0
44.579365079365076,997.75
45.87301587301587,974.5
47.166666666666664,944.0
49.11111111111111,992.0
51.05555555555556,1096.0
53.0,1191.0
53.333333333333336,1314.0
53.666666666666664,1423.0
54.0,1511.0
53.75,1557.0
53.5,1611.0
53.25,1638.0
53.0,1661.0
53.80952380952381,1696.0
54.61904761904762,1708.0
55.42857142857143,1724.0
63.17460317460318,1725.0
70.92063492063492,1740.0
78.66666666666667,1710.0
84.11111111111111,1659.0
89.55555555555556,1545.0
95.0,1409.0
94.94444444444444,1250.0
94.88888888888889,1160.0
94.83333333333333,1089.0
93.66666666666666,1031.0
92.5,979.0
91.33333333333333,911.0
89.21428571428571,843.0
87.0952380952381,779.0
84.97619047619048,799.0
82.85714285714286,903.0
81.34920634920636,1041.0
79.84126984126983,1146.0
78.33333333333333,1186.0
79.03174603174602,1183.0
79.73015873015873,1184.0
80.42857142857143,1173.0
79.5297619047619,1179.0
78.63095238095238,1185.0
77.73214285714286,1191.0
76.83333333333333,1207.0
75.11111111111111,1225.0
73.38888888888889,1249.0
71.66666666666667,1278.0
75.3015873015873,1297.0
78.93650793650794,1306.0
82.57142857142857,1299.0
78.15873015873015,1291.0
73.74603174603175,1271.0
69.33333333333333,1237.0
50.98412698412698,1143.0
32.63492063492063,1102.0
14.285714285714286,1101.0
11.357142857142858,1146.0
8.428571428571429,1182.0
5.5,1192.0
10.791666666666668,1194.0
16.083333333333336,1203.0
21.375,1201.5
26.666666666666668,1200.0
41.301587301587304,1225.0
55.93650793650794,1255.0
70.57142857142857,1279.0
77.54761904761905,1303.0
84.52380952380952,1323.0
91.5,1321.0
91.42857142857143,1305.0
91.35714285714286,1278.0
91.28571428571429,1277.0
91.07936507936509,1270.0
90.87301587301587,1262.0
90.66666666666667,1246.0
90.75,1250.0
90.83333333333334,1252.0
90.91666666666667,1261.0
91.0,1259.0
89.9047619047619,1275.0
88.80952380952381,1284.0
87.71428571428571,1300.0
85.30952380952381,1328.0
82.9047619047619,1352.0
80.5,1386.0
79.42857142857143,1420.0
78.35714285714286,1436.0
77.28571428571429,1450.0
78.85714285714286,1448.0
80.42857142857143,1441.0
82.0,1440.0
84.61111111111111,1451.0
87.22222222222221,1464.0
89.83333333333333,1483.0
91.125,1483.0
92.41666666666666,1479.0
93.70833333333333,1473.0
95.0,1490.0
95.0,1506.0
95.0,1520.0
95.0,1524.0
94.76190476190476,1517.0
94.52380952380953,1487.0
94.28571428571429,1473.0
94.19047619047619,1458.0
94.0952380952381,1451.0
94.0,1457.0
93.66666666666667,1464.0
93.33333333333333,1473.0
93.0,1483.0
92.42857142857143,1492.0
91.85714285714286,1502.0
91.28571428571428,1506.0
90.71428571428571,1509.0
89.25396825396825,1501.0
87.79365079365078,1510.0
86.33333333333333,1517.0
83.93650793650794,1532.0
81.53968253968253,1534.0
79.14285714285714,1532.0
76.59523809523809,1550.0
74.04761904761905,1538.0
71.5,1531.0
69.38888888888889,1533.0
67.27777777777779,1528.0
65.16666666666667,1515.0
63.44642857142858,1509.0
61.72619047619048,1494.0
60.00595238095238,1497.0
58.285714285714285,1505.0
57.46825396825397,1509.0
56.65079365079365,1514.0
55.833333333333336,1522.0
56.65079365079365,1521.0
57.46825396825397,1523.0
58.285714285714285,1533.0
59.19047619047619,1543.0
60.095238095238095,1535.0
61.0,1527.0
61.333333333333336,1532.0
61.666666666666664,1538.0
62.0,1538.0
62.32142857142857,1538.0
62.64285714285714,1543.0
62.964285714285715,1561.0
63.285714285714285,1561.0
65.57936507936508,1551.0
67.87301587301587,1545.0
70.16666666666667,1531.0
73.25396825396825,1518.0
76.34126984126985,1505.0
79.42857142857143,1510.0
80.78571428571429,1525.0
82.14285714285714,1528.0
83.5,1544.0
82.72222222222223,1546.0
81.94444444444444,1551.0
81.16666666666667,1547.0
79.41071428571429,1546.0
77.6547619047619,1544.0
75.89880952380952,1538.0
74.14285714285714,1535.0
72.53968253968253,1532.0
70.93650793650794,1529.0
69.33333333333333,1536.0
68.46031746031746,1530.0
67.58730158730158,1532.0
66.71428571428571,1513.0
65.03174603174602,1513.0
63.34920634920635,1519.0
61.666666666666664,1516.0
59.44444444444444,1514.0
57.22222222222222,1515.0
55.0,1525.0
53.25,1526.0
51.5,1521.0
49.75,1525.0
48.0,1523.0
46.27777777777778,1503.0
44.55555555555556,1504.0
42.833333333333336,1507.5
42.88888888888889,1511.0
42.94444444444444,1507.0
43.0,1518.0
44.833333333333336,1516.0
46.666666666666664,1504.0
48.5,1494.0
51.27777777777778,1472.0
54.05555555555556,1459.0
56.833333333333336,1458.0
58.48214285714286,1455.0
60.13095238095238,1456.0
61.779761904761905,1460.0
63.42857142857143,1475.0
63.73015873015873,1475.0
64.03174603174602,1483.0
64.33333333333333,1491.0
62.80952380952381,1499.0
61.285714285714285,1485.0
60.75595238095238,1488.0
60.226190476190474,1502.0
59.69642857142857,1503.0
59.166666666666664,1509.0
59.11111111111111,1515.0
59.05555555555556,1509.0
59.0,1511.0
58.60714285714286,1507.0
58.214285714285715,1500.0
57.82142857142857,1498.0
57.42857142857143,1500.0
56.84126984126984,1509.0
56.25396825396825,1510.0
55.666666666666664,1516.0
55.682539682539684,1515.0
55.698412698412696,1524.0
55.714285714285715,1529.0
56.03174603174603,1535.0
56.34920634920635,1517.0
56.666666666666664,1527.0
56.55555555555556,1522.0
56.44444444444444,1506.0
56.333333333333336,1499.0
56.07142857142857,1504.0
55.80952380952381,1503.0
55.54761904761905,1518.0
55.285714285714285,1525.0
56.357142857142854,1526.0
57.42857142857143,1516.0
58.5,1486.0
60.61904761904762,1476.0
62.73809523809524,1458.0
64.85714285714286,1458.0
65.90476190476191,1471.0
66.95238095238095,1480.0
68.0,1480.0
67.61111111111111,1504.0
67.22222222222221,1503.0
66.83333333333333,1503.0
66.16071428571428,1508.0
65.48809523809524,1499.0
64.81547619047619,1509.0
64.14285714285714,1512.0
63.26190476190476,1529.0
62.38095238095238,1530.0
61.5,1531.0
60.39285714285714,1537.0
59.285714285714285,1544.0
58.79761904761905,1547.5
58.30952380952381,1551.0
57.82142857142857,1567.0
57.333333333333336,1585.0
56.55555555555556,1601.0
55.77777777777778,1613.0
55.0,1625.0
54.17857142857143,1620.0
53.35714285714286,1627.0
52.535714285714285,1628.0
51.714285714285715,1635.0
50.698412698412696,1629.0
49.682539682539684,1633.0
48.666666666666664,1635.0
47.77777777777778,1637.0
46.888888888888886,1632.0
46.0,1627.0
45.166666666666664,1629.0
44.333333333333336,1625.0
43.5,1616.0
42.72222222222222,1604.5
41.94444444444444,1589.0
41.166666666666664,1594.0
41.11111111111111,1593.0
41.05555555555556,1603.0
41.0,1597.0
42.416666666666664,1589.0
43.83333333333333,1565.0
45.25,1544.0
46.666666666666664,1524.0
49.69047619047619,1516.0
52.714285714285715,1520.0
52.74404761904762,1524.0
52.773809523809526,1527.0
52.80357142857143,1530.0
52.833333333333336,1538.0
52.05555555555556,1534.0
51.27777777777778,1542.0
50.5,1538.0
49.875,1538.0
49.25,1538.0
48.625,1545.0
48.0,1543.0
47.44444444444444,1544.0
46.88888888888889,1532.0
46.333333333333336,1524.0
45.98412698412699,1523.0
45.63492063492063,1510.0
45.285714285714285,1512.0
44.69047619047619,1510.0
44.095238095238095,1509.0
43.5,1516.0
42.833333333333336,1514.0
42.166666666666664,1520.0
41.5,1514.0
40.98214285714286,1518.0
40.464285714285715,1503.0
39.94642857142857,1496.0
39.42857142857143,1496.0
38.785714285714285,1502.0
38.142857142857146,1504.0
37.5,1500.0
36.857142857142854,1493.0
36.214285714285715,1488.0
35.57142857142857,1479.0
35.15873015873016,1471.0
34.74603174603175,1461.0
34.333333333333336,1480.0
34.611111111111114,1474.0
34.888888888888886,1489.0
35.166666666666664,1485.0
37.160714285714285,1475.0
39.154761904761905,1462.0
41.148809523809526,1444.0
43.142857142857146,1434.0
45.761904761904766,1419.0
48.38095238095238,1425.0
51.0,1434.0
50.333333333333336,1429.0
49.666666666666664,1443.0
49.0,1457.0
44.44444444444444,1459.0
39.88888888888889,1458.0
35.333333333333336,1447.0
29.166666666666668,1453.0
23.0,1466.0
16.833333333333332,1461.0
12.936507936507935,1480.0
9.039682539682538,1476.0
5.142857142857143,1474.0
5.107142857142858,1470.0
5.071428571428571,1473.0
5.035714285714286,1475.0
5.0,1480.0
5.285714285714286,1477.0
5.571428571428571,1476.5
5.857142857142857,1476.0
7.404761904761904,1480.0
8.952380952380953,1476.5
10.5,1473.0
12.444444444444445,1488.0
14.388888888888888,1490.0
16.333333333333332,1492.0
16.793650793650794,1482.0
17.253968253968253,1487.0
17.714285714285715,1480.0
16.99404761904762,1490.0
16.273809523809526,1479.0
15.553571428571429,1492.0
14.833333333333334,1483.0
15.174603174603176,1483.0
15.515873015873016,1471.0
15.857142857142858,1468.0
17.849206349206348,1477.0
19.841269841269842,1477.5
21.833333333333332,1478.0
24.61111111111111,1493.5
27.38888888888889,1502.0
30.166666666666668,1488.0
33.920634920634924,1476.0
37.67460317460318,1449.0
41.42857142857143,1454.0
43.32142857142857,1453.0
45.214285714285715,1451.0
47.10714285714286,1451.0
49.0,1467.0
49.476190476190474,1480.0
49.952380952380956,1480.0
50.42857142857143,1481.0
49.84126984126984,1473.0
49.25396825396825,1478.0
48.666666666666664,1485.0
48.27777777777778,1484.0
47.888888888888886,1493.0
47.5,1502.0
47.476190476190474,1498.0
47.452380952380956,1493.0
47.42857142857143,1497.0
47.61309523809524,1492.0
47.79761904761905,1496.0
47.982142857142854,1497.0
48.166666666666664,1497.0
48.44444444444444,1501.0
48.72222222222222,1496.0
49.0,1503.0
49.0,1507.0
49.0,1513.0
49.0,1511.0
49.16666666666667,1507.0
49.333333333333336,1507.0
49.392857142857146,1503.0
49.45238095238095,1498.0
49.51190476190476,1495.0
49.57142857142857,1497.0
49.26190476190476,1495.0
48.95238095238095,1502.0
48.642857142857146,1508.0
48.333333333333336,1500.0
47.38095238095238,1501.0
46.42857142857143,1489.0
46.07142857142857,1480.0
45.714285714285715,1485.0
45.35714285714286,1498.0
45.0,1501.0
46.33333333333333,1515.0
47.666666666666664,1517.5
49.82142857142857,1520.0
51.976190476190474,1514.0
54.13095238095238,1508.0
56.285714285714285,1481.0
58.579365079365076,1472.0
60.87301587301587,1457.0
63.166666666666664,1457.0
63.11111111111111,1459.0
63.05555555555556,1476.0
63.0,1490.0
62.25,1498.0
61.5,1504.0
60.75,1495.0
60.0,1493.0
59.22222222222222,1502.0
58.44444444444444,1503.0
57.666666666666664,1509.0
57.15873015873016,1511.0
56.65079365079365,1510.0
56.142857142857146,1516.0
55.761904761904766,1515.0
55.38095238095238,1512.0
55.0,1498.0
54.57142857142857,1511.0
54.142857142857146,1515.0
53.714285714285715,1514.5
53.11904761904762,1514.0
52.523809523809526,1521.0
51.92857142857143,1514.0
51.333333333333336,1523.0
50.5,1536.0
49.66666666666667,1533.0
48.833333333333336,1545.0
48.12698412698413,1545.0
47.420634920634924,1552.0
46.714285714285715,1568.0
45.976190476190474,1577.0
45.23809523809524,1583.0
44.5,1597.0
43.714285714285715,1607.0
42.92857142857143,1610.0
42.142857142857146,1609.0
41.69047619047619,1604.0
41.23809523809524,1603.0
40.78571428571429,1597.0
40.333333333333336,1598.0
40.16666666666667,1606.5
40.0,1612.0
39.833333333333336,1601.0
41.98412698412699,1597.5
44.13492063492063,1594.0
46.285714285714285,1576.0
49.857142857142854,1549.0
53.42857142857143,1531.0
57.0,1526.0
58.23809523809524,1537.0
59.476190476190474,1542.0
60.714285714285715,1545.0
59.99404761904762,1553.0
59.273809523809526,1556.0
58.55357142857143,1562.0
57.833333333333336,1567.0
56.77777777777778,1552.0
55.72222222222222,1553.0
54.666666666666664,1567.0
53.82539682539682,1571.5
52.98412698412699,1576.0
52.142857142857146,1567.0
51.70634920634921,1565.5
51.26984126984127,1562.0
50.833333333333336,1560.0
50.26984126984127,1559.0
49.70634920634921,1558.0
49.142857142857146,1560.0
48.48214285714286,1557.0
47.82142857142857,1554.0
47.160714285714285,1547.0
46.5,1553.0
45.55555555555556,1545.0
44.61111111111111,1549.0
43.666666666666664,1533.0
42.77777777777778,1536.0
41.888888888888886,1525.0
41.0,1525.0
40.27777777777778,1517.0
39.55555555555556,1526.0
38.833333333333336,1506.0
38.17460317460318,1510.0
37.51587301587301,1508.0
36.857142857142854,1501.0
36.476190476190474,1496.0
36.095238095238095,1488.0
35.714285714285715,1483.0
35.333333333333336,1479.0
35.05555555555556,1477.0
34.77777777777778,1489.0
34.5,1486.0
36.857142857142854,1480.0
39.214285714285715,1466.0
41.57142857142857,1457.0
46.1031746031746,1430.0
50.63492063492063,1415.0
55.166666666666664,1411.0
57.11111111111111,1415.0
59.05555555555556,1415.0
61.0,1434.0
60.5,1442.0
60.0,1453.0
59.5,1449.0
59.0,1449.0
58.05555555555556,1445.0
57.11111111111111,1451.0
56.166666666666664,1449.0
55.53968253968254,1462.0
54.91269841269841,1468.0
54.285714285714285,1473.0
54.13492063492063,1474.0
53.98412698412699,1465.0
53.833333333333336,1468.0
53.507936507936506,1460.0
53.182539682539684,1467.0
52.857142857142854,1475.0
52.39285714285714,1479.0
51.92857142857143,1481.0
51.464285714285715,1478.0
51.0,1480.0
49.833333333333336,1485.0
48.666666666666664,1488.0
47.5,1493.0
46.523809523809526,1481.0
45.547619047619044,1480.0
44.57142857142857,1488.0
43.714285714285715,1494.0
42.857142857142854,1495.0
42.0,1491.0
41.19047619047619,1494.0
40.38095238095238,1486.0
39.57142857142857,1493.0
39.05357142857143,1490.0
38.535714285714285,1470.0
38.01785714285714,1459.0
37.5,1477.0
37.666666666666664,1490.0
37.833333333333336,1498.0
38.0,1506.0
41.666666666666664,1495.5
45.333333333333336,1473.0
49.0,1448.0
54.05555555555556,1446.0
59.111111111111114,1444.0
64.16666666666667,1447.0
65.73015873015873,1466.0
67.2936507936508,1458.0
68.85714285714286,1460.0
68.30952380952381,1476.0
67.76190476190476,1490.0
67.21428571428572,1490.0
66.66666666666667,1490.0
65.41666666666667,1477.0
64.16666666666667,1486.0
63.55357142857143,1500.0
62.94047619047619,1503.0
62.327380952380956,1504.0
61.714285714285715,1495.0
61.25396825396825,1495.5
60.7936507936508,1496.0
60.333333333333336,1502.0
59.74603174603175,1496.0
59.15873015873016,1492.0
58.57142857142857,1490.0
57.80357142857143,1497.0
57.035714285714285,1502.0
56.26785714285714,1504.0
55.5,1498.0
54.5,1500.0
53.5,1500.0
52.5,1502.0
51.285714285714285,1504.0
50.07142857142857,1497.0
48.857142857142854,1495.0
47.738095238095234,1497.0
46.61904761904762,1498.0
45.5,1502.0
44.42857142857143,1512.0
43.357142857142854,1513.0
42.285714285714285,1508.0
41.50595238095238,1502.0
40.726190476190474,1486.0
39.94642857142857,1485.0
39.166666666666664,1495.0
39.0,1499.0
38.83333333333333,1508.0
38.666666666666664,1514.0
42.53968253968254,1505.0
46.41269841269841,1503.0
50.285714285714285,1480.0
56.07936507936508,1460.0
61.87301587301587,1462.0
67.66666666666667,1462.0
69.44444444444444,1469.0
71.22222222222223,1471.0
73.0,1480.0
72.33333333333333,1486.0
71.66666666666666,1497.0
71.0,1496.0
70.33333333333333,1496.0
69.33333333333333,1493.0
68.33333333333333,1495.0
67.33333333333333,1495.0
66.46031746031746,1516.0
65.58730158730158,1514.0
64.71428571428571,1515.0
64.25396825396825,1520.0
63.79365079365079,1539.0
63.333333333333336,1546.0
62.46031746031746,1546.0
61.58730158730159,1551.0
60.714285714285715,1551.0
59.74404761904762,1559.0
58.773809523809526,1560.0
57.80357142857143,1564.0
56.833333333333336,1560.0
55.333333333333336,1572.0
53.833333333333336,1584.0
52.333333333333336,1582.0
50.98412698412699,1589.0
49.63492063492063,1577.0
48.285714285714285,1584.5
47.023809523809526,1591.25
45.76190476190476,1598.0
44.5,1607.0
43.095238095238095,1619.0
41.69047619047619,1616.0
40.285714285714285,1604.0
39.339285714285715,1595.0
38.39285714285714,1599.0
37.44642857142857,1590.0
36.5,1579.0
35.5,1580.0
34.5,1570.0
33.5,1575.0
34.80952380952381,1579.0
36.11904761904762,1581.0
37.42857142857143,1565.0
43.84126984126984,1553.0
50.25396825396825,1519.0
56.666666666666664,1518.5
62.06349206349206,1518.0
67.46031746031747,1513.0
72.85714285714286,1531.0
73.05952380952381,1536.0
73.26190476190476,1546.0
73.46428571428572,1556.0
73.66666666666667,1556.0
72.22222222222223,1550.0
70.77777777777777,1548.0
69.33333333333333,1547.0
68.17460317460318,1545.0
67.01587301587301,1556.0
65.85714285714286,1554.0
65.23809523809524,1553.0
64.61904761904762,1532.5
64.0,1538.0
63.857142857142854,1538.0
63.714285714285715,1534.0
63.57142857142857,1538.0
62.76190476190476,1534.0
61.95238095238095,1530.0
61.142857142857146,1532.0
60.333333333333336,1528.0
58.833333333333336,1516.0
57.333333333333336,1520.0
55.833333333333336,1514.0
54.22222222222222,1512.0
52.611111111111114,1495.0
51.0,1496.0
49.72222222222222,1501.0
48.44444444444444,1499.0
47.166666666666664,1496.0
46.01587301587301,1495.0
44.86507936507937,1490.0
43.714285714285715,1482.0
42.910714285714285,1479.0
42.10714285714286,1478.0
41.30357142857143,1468.0
40.5,1469.0
39.44444444444444,1460.0
38.38888888888889,1465.0
37.333333333333336,1474.0
38.55555555555556,1483.0
39.77777777777778,1475.0
41.0,1468.0
48.0,1455.0
55.0,1437.0
62.0,1415.0
68.28571428571429,1417.0
74.57142857142857,1423.0
80.85714285714286,1430.0
81.51785714285714,1437.0
82.17857142857143,1437.0
82.83928571428572,1437.0
83.5,1452.0
82.44444444444444,1454.0
81.38888888888889,1458.0
80.33333333333333,1453.0
79.03174603174602,1451.0
77.73015873015873,1458.0
76.42857142857143,1469.0
75.5079365079365,1478.0
74.5873015873016,1467.0
73.66666666666667,1466.0
73.20634920634922,1462.0
72.74603174603175,1460.0
72.28571428571429,1455.0
71.29761904761905,1460.0
70.30952380952381,1458.0
69.32142857142857,1460.0
68.33333333333333,1461.0
65.41666666666666,1467.0
62.5,1466.0
60.875,1469.0
59.25,1465.0
57.625,1471.0
56.0,1476.0
53.833333333333336,1469.0
51.666666666666664,1463.0
49.5,1461.5
47.666666666666664,1464.75
45.833333333333336,1468.0
44.0,1476.0
42.75,1473.0
41.5,1478.0
40.25,1468.0
39.0,1471.0
38.0,1466.0
37.0,1458.0
35.2,1466.0
35.609523809523814,1469.0
36.01904761904762,1476.0
36.42857142857143,1477.0
42.507936507936506,1479.0
48.58730158730159,1468.0
54.666666666666664,1443.0
62.49206349206349,1430.0
70.31746031746032,1421.0
78.14285714285714,1432.0
80.98412698412699,1431.0
83.82539682539682,1438.0
86.66666666666667,1445.0
86.33333333333334,1463.0
86.0,1458.0
85.66666666666667,1470.0
84.71428571428572,1458.0
83.76190476190476,1452.0
82.80952380952381,1461.0
81.85714285714286,1471.0
80.12698412698413,1487.0
78.3968253968254,1487.0
76.66666666666667,1490.0
75.15873015873017,1488.5
73.65079365079364,1480.0
72.14285714285714,1478.0
70.59523809523809,1473.0
69.04761904761905,1472.0
67.5,1478.0
65.38888888888889,1486.0
63.27777777777778,1482.5
61.166666666666664,1479.0
59.26785714285714,1480.0
57.36904761904762,1480.0
55.470238095238095,1488.0
53.57142857142857,1488.0
51.38095238095238,1489.0
49.19047619047619,1485.0
47.0,1482.0
45.19047619047619,1482.0
43.38095238095238,1487.0
41.57142857142857,1486.0
39.547619047619044,1491.0
37.523809523809526,1497.0
35.5,1499.0
33.5,1502.0
31.5,1487.0
29.5,1476.0
28.05357142857143,1472.0
26.607142857142858,1474.0
25.160714285714285,1482.0
23.714285714285715,1489.0
25.92063492063492,1498.0
28.126984126984127,1510.0
30.333333333333332,1500.0
39.41269841269841,1495.0
48.492063492063494,1471.0
57.57142857142857,1453.0
64.4920634920635,1464.0
71.4126984126984,1475.0
78.33333333333333,1480.0
79.11111111111111,1496.0
79.88888888888889,1518.0
80.66666666666667,1540.0
79.67857142857143,1545.0
78.69047619047619,1544.0
77.70238095238095,1548.0
76.71428571428571,1543.0
74.97619047619047,1553.0
73.23809523809524,1567.0
71.5,1582.0
70.0952380952381,1582.0
68.69047619047619,1582.0
67.28571428571429,1582.0
66.02380952380953,1581.0
64.76190476190476,1580.0
63.5,1578.0
61.388888888888886,1581.0
59.27777777777778,1576.0
57.166666666666664,1570.0
54.80357142857143,1572.0
52.44047619047619,1568.0
50.07738095238095,1563.0
47.714285714285715,1560.0
44.920634920634924,1556.0
42.12698412698413,1557.0
39.333333333333336,1550.0
36.88888888888889,1547.0
34.44444444444444,1545.0
32.0,1545.0
29.72222222222222,1546.0
27.444444444444446,1550.0
25.166666666666668,1552.0
22.944444444444446,1535.0
20.72222222222222,1538.0
18.5,1546.0
16.875,1538.0
15.25,1529.0
13.625,1523.0
12.0,1525.0
10.5,1526.0
9.0,1524.0
7.5,1533.0
11.476190476190476,1533.0
15.452380952380953,1533.0
19.428571428571427,1519.0
30.507936507936506,1493.5
41.58730158730159,1460.0
52.666666666666664,1464.0
59.5,1466.0
66.33333333333334,1468.0
73.16666666666667,1472.0
73.30357142857143,1471.0
73.44047619047619,1479.0
73.57738095238095,1488.0
73.71428571428571,1483.0
71.64285714285714,1491.0
69.57142857142857,1475.0
67.5,1472.0
65.52380952380952,1497.0
63.547619047619044,1499.0
61.57142857142857,1497.0
60.6031746031746,1481.0
59.63492063492063,1479.0
58.666666666666664,1473.0
57.94444444444444,1476.0
57.22222222222222,1470.0
56.5,1469.0
54.94642857142857,1473.0
53.39285714285714,1469.0
51.839285714285715,1469.0
50.285714285714285,1469.0
47.24603174603175,1470.0
44.2063492063492,1471.0
41.166666666666664,1477.0
38.492063492063494,1479.0
35.817460317460316,1470.0
33.142857142857146,1470.0
30.873015873015873,1464.0
28.603174603174605,1473.0
26.333333333333332,1478.0
24.055555555555554,1483.0
21.77777777777778,1492.0
19.5,1483.0
17.875,1480.0
16.25,1474.0
14.625,1469.0
13.0,1464.0
11.222222222222221,1463.0
9.444444444444445,1467.0
7.666666666666667,1480.0
11.634920634920636,1479.0
15.603174603174605,1481.0
19.571428571428573,1466.0
31.380952380952383,1446.0
43.19047619047619,1433.0
55.0,1412.0
62.5,1414.0
70.0,1415.0
77.5,1428.0
78.08928571428572,1439.0
78.67857142857143,1440.0
79.26785714285714,1458.0
79.85714285714286,1454.0
78.34920634920636,1460.0
76.84126984126983,1461.0
75.33333333333333,1454.0
73.07936507936508,1458.0
70.82539682539682,1471.0
68.57142857142857,1486.0
66.88095238095238,1491.0
65.19047619047619,1497.0
63.5,1481.0
62.611111111111114,1473.0
61.72222222222222,1486.0
60.833333333333336,1480.0
59.23214285714286,1483.0
57.63095238095238,1482.0
56.029761904761905,1477.0
54.42857142857143,1492.0
51.06349206349206,1486.0
47.6984126984127,1493.0
44.333333333333336,1490.0
40.84126984126984,1493.0
37.34920634920635,1495.0
33.857142857142854,1493.0
31.126984126984127,1487.0
28.396825396825395,1484.0
25.666666666666668,1487.5
23.27777777777778,1490.25
20.88888888888889,1493.0
18.5,1489.0
16.696428571428573,1498.0
14.892857142857142,1494.0
13.089285714285715,1502.0
11.285714285714286,1502.0
9.357142857142858,1488.0
7.428571428571429,1483.0
5.5,1476.0
5.571428571428571,1486.0
5.642857142857143,1494.0
5.714285714285714,1504.0
11.865079365079366,1509.0
18.015873015873016,1492.0
24.166666666666668,1470.0
36.22222222222223,1458.0
48.277777777777786,1449.0
60.333333333333336,1444.0
65.89285714285714,1453.0
71.45238095238095,1454.0
77.01190476190476,1472.0
82.57142857142857,1477.0
82.60317460317461,1482.0
82.63492063492063,1483.0
82.66666666666667,1485.0
80.96825396825398,1487.0
79.26984126984127,1488.0
77.57142857142857,1494.0
75.60317460317461,1496.0
73.63492063492063,1507.0
71.66666666666667,1509.0
70.44444444444444,1508.0
69.22222222222223,1501.0
68.0,1503.0
67.28571428571428,1502.0
66.57142857142857,1504.0
65.85714285714286,1503.0
65.14285714285714,1505.5
62.98412698412698,1508.0
60.82539682539682,1508.0
58.666666666666664,1506.0
55.3015873015873,1521.0
51.93650793650794,1527.0
48.57142857142857,1533.0
45.214285714285715,1531.0
41.857142857142854,1537.0
38.5,1550.0
35.888888888888886,1555.0
33.27777777777778,1569.0
30.666666666666668,1569.0
28.607142857142858,1577.0
26.547619047619047,1582.0
24.488095238095237,1594.0
22.428571428571427,1596.0
19.674603174603174,1590.0
16.92063492063492,1596.0
14.166666666666666,1589.0
11.825396825396826,1584.5
9.484126984126984,1580.0
7.142857142857143,1577.0
6.984126984126984,1584.0
6.825396825396826,1589.0
6.666666666666667,1595.0
14.0,1593.0
21.333333333333332,1585.0
28.666666666666668,1575.0
39.35714285714286,1551.0
50.04761904761905,1534.0
60.73809523809524,1517.0
71.42857142857143,1528.0
77.84126984126985,1531.0
84.25396825396825,1532.0
90.66666666666667,1539.0
89.44444444444444,1541.0
88.22222222222223,1538.0
87.0,1541.0
84.83333333333333,1534.0
82.66666666666667,1534.0
80.5,1538.0
78.72222222222223,1545.0
76.94444444444444,1555.0
75.16666666666667,1542.0
74.625,1536.0
74.08333333333334,1529.0
73.54166666666667,1524.0
73.0,1517.0
72.05555555555556,1516.0
71.11111111111111,1518.0
70.16666666666667,1515.0
67.34920634920636,1519.0
64.53174603174604,1525.0
61.714285714285715,1516.0
58.25396825396825,1513.0
54.7936507936508,1503.0
51.333333333333336,1509.0
48.38888888888889,1501.0
45.44444444444444,1495.0
42.5,1490.0
39.61904761904762,1487.5
36.738095238095234,1485.0
33.857142857142854,1482.0
31.015873015873012,1486.0
28.174603174603174,1492.0
25.333333333333332,1497.0
23.428571428571427,1495.0
21.523809523809526,1482.0
19.61904761904762,1472.0
17.714285714285715,1472.0
16.30952380952381,1470.0
14.904761904761905,1481.0
13.5,1487.0
19.833333333333332,1487.0
26.166666666666664,1474.0
32.5,1466.0
43.76785714285714,1444.0
55.035714285714285,1415.0
66.30357142857143,1418.5
77.57142857142857,1422.0
86.03571428571428,1426.0
94.5,1434.0
93.625,1444.0
92.75,1450.0
91.875,1455.0
91.0,1458.0
88.88888888888889,1459.0
86.77777777777779,1460.0
84.66666666666667,1451.0
82.72222222222223,1466.0
80.77777777777777,1468.0
78.83333333333333,1472.0
77.94642857142857,1479.0
77.05952380952381,1476.0
76.17261904761905,1471.5
75.28571428571429,1464.0
73.72619047619048,1464.0
72.16666666666667,1462.0
69.68253968253968,1465.5
67.1984126984127,1469.0
64.71428571428571,1466.0
62.16071428571428,1470.0
59.607142857142854,1471.0
57.05357142857143,1473.0
54.5,1477.0
51.611111111111114,1473.0
48.72222222222222,1471.0
45.833333333333336,1468.0
43.66071428571429,1468.0
41.48809523809524,1467.0
39.31547619047619,1461.0
37.142857142857146,1472.0
34.37301587301587,1470.0
31.603174603174605,1476.0
28.833333333333332,1478.0
24.916666666666664,1472.0
21.0,1462.0
19.375,1453.0
17.75,1460.5
16.125,1468.0
14.5,1470.0
16.77777777777778,1480.0
19.055555555555554,1487.0
21.333333333333332,1480.0
33.55555555555556,1480.0
45.77777777777778,1451.0
58.0,1440.0
68.94444444444444,1440.0
79.88888888888889,1437.0
90.83333333333333,1433.0
91.74603174603175,1444.0
92.65873015873015,1449.0
93.57142857142857,1454.0
92.51190476190476,1469.0
91.45238095238095,1470.0
90.39285714285714,1463.0
89.33333333333333,1459.0
87.38888888888889,1458.0
85.44444444444444,1466.0
83.5,1481.0
81.57142857142857,1485.0
79.64285714285714,1502.0
77.71428571428571,1490.0
76.6984126984127,1478.0
75.68253968253968,1486.0
74.66666666666667,1478.0
72.68253968253968,1473.0
70.6984126984127,1473.0
68.71428571428571,1478.0
66.36904761904762,1484.0
64.02380952380952,1490.0
61.67857142857143,1485.0
59.333333333333336,1491.0
56.22222222222222,1490.0
53.111111111111114,1492.0
50.0,1498.0
46.76190476190476,1497.0
43.523809523809526,1499.0
40.285714285714285,1500.0
37.24603174603175,1489.0
34.20634920634921,1495.0
31.166666666666668,1494.0
28.301587301587304,1499.0
25.436507936507937,1509.0
22.571428571428573,1515.0
20.720238095238095,1509.0
18.86904761904762,1513.0
17.017857142857142,1503.0
15.166666666666666,1502.0
13.166666666666666,1506.0
11.166666666666666,1518.0
9.166666666666666,1514.0
13.396825396825395,1536.0
17.626984126984127,1548.0
21.857142857142858,1555.0
35.07142857142857,1545.0
48.285714285714285,1534.5
61.5,1534.75
70.61904761904762,1535.0
79.73809523809524,1537.0
88.85714285714286,1550.0
89.60119047619048,1555.0
90.3452380952381,1562.0
91.08928571428571,1566.0
91.83333333333333,1563.0
90.16666666666666,1551.0
88.5,1537.0
86.83333333333333,1527.0
84.55555555555556,1528.0
82.27777777777777,1542.0
80.0,1548.0
78.61111111111111,1545.0
77.22222222222221,1540.5
75.83333333333333,1540.0
75.03174603174602,1542.0
74.23015873015873,1545.0
73.42857142857143,1545.0
71.7797619047619,1549.0
70.13095238095238,1553.0
68.48214285714286,1553.0
66.83333333333333,1551.0
63.55555555555555,1549.0
60.27777777777778,1553.0
57.0,1548.0
53.61904761904762,1553.0
50.238095238095234,1546.0
46.857142857142854,1545.0
44.182539682539684,1538.0
41.507936507936506,1532.5
38.833333333333336,1529.0
35.93650793650794,1533.0
33.03968253968254,1532.0
30.142857142857142,1530.0
27.607142857142858,1517.0
25.07142857142857,1518.0
22.535714285714285,1507.0
20.0,1503.0
17.333333333333332,1498.0
14.666666666666668,1503.0
12.0,1508.0
13.714285714285714,1505.0
15.428571428571429,1509.0
17.142857142857142,1501.0
29.98412698412698,1491.0
42.82539682539682,1466.5
55.666666666666664,1454.0
67.4920634920635,1462.0
79.31746031746032,1455.0
91.14285714285714,1447.0
91.87301587301587,1451.0
92.6031746031746,1459.0
93.33333333333333,1466.0
92.125,1450.0
90.91666666666666,1448.0
89.70833333333333,1446.0
88.5,1443.0
86.57142857142857,1433.0
84.64285714285714,1444.0
82.71428571428571,1453.0
81.86507936507937,1453.0
81.01587301587301,1453.0
80.16666666666667,1450.0
79.73015873015873,1450.0
79.2936507936508,1457.0
78.85714285714286,1458.0
77.43452380952381,1453.5
76.01190476190476,1458.0
74.58928571428572,1458.0
73.16666666666667,1458.0
70.16666666666667,1454.0
67.16666666666667,1453.0
64.16666666666667,1466.0
60.96825396825397,1466.0
57.76984126984127,1458.0
54.57142857142857,1462.0
51.547619047619044,1453.0
48.523809523809526,1447.0
45.5,1457.0
42.23809523809524,1457.0
38.976190476190474,1472.0
35.714285714285715,1475.0
33.410714285714285,1473.0
31.107142857142858,1473.0
28.80357142857143,1466.0
26.5,1458.0
24.22222222222222,1452.0
21.944444444444446,1467.0
19.666666666666668,1475.0
24.11111111111111,1478.0
28.555555555555557,1482.0
33.0,1480.0
46.11111111111111,1468.0
59.222222222222214,1446.0
72.33333333333333,1431.0
79.74603174603175,1431.0
87.15873015873015,1434.0
94.57142857142857,1444.0
94.13690476190476,1447.0
93.70238095238095,1450.0
93.26785714285714,1463.0
92.83333333333333,1460.0
91.27777777777777,1469.0
89.72222222222223,1463.0
88.16666666666667,1458.0
85.77777777777779,1470.0
83.38888888888889,1478.0
81.0,1497.0
79.11111111111111,1505.0
77.22222222222221,1494.0
75.33333333333333,1495.0
74.07936507936508,1498.0
72.82539682539682,1494.0
71.57142857142857,1481.0
69.80357142857143,1491.0
68.03571428571428,1490.0
66.26785714285714,1490.0
64.5,1489.0
59.33333333333333,1494.0
54.166666666666664,1506.0
51.30357142857143,1504.0
48.44047619047619,1502.0
45.57738095238095,1502.0
42.714285714285715,1503.0
39.476190476190474,1503.0
36.23809523809524,1508.0
33.0,1498.0
30.0,1504.0
27.0,1516.5
24.0,1516.0
21.958333333333332,1516.0
19.916666666666668,1513.0
17.875,1496.0
15.833333333333334,1495.0
13.555555555555555,1504.0
11.277777777777779,1495.0
9.0,1508.0
11.571428571428571,1516.0
14.142857142857142,1512.5
16.714285714285715,1509.0
28.365079365079367,1498.0
40.01587301587301,1477.0
51.666666666666664,1459.0
61.3015873015873,1455.0
70.93650793650794,1458.0
80.57142857142857,1470.5
81.67857142857143,1491.0
82.78571428571428,1503.0
83.89285714285714,1509.0
85.0,1519.0
83.44444444444444,1529.0
81.88888888888889,1522.0
80.33333333333333,1541.0
77.93650793650794,1555.0
75.53968253968253,1576.0
73.14285714285714,1589.0
71.03968253968253,1586.0
68.93650793650794,1583.0
66.83333333333333,1582.0
65.5079365079365,1581.0
64.18253968253968,1589.0
62.857142857142854,1589.0
60.51587301587301,1588.0
58.17460317460318,1592.0
55.833333333333336,1594.0
53.16666666666667,1595.0
50.5,1595.0
47.83333333333333,1589.0
45.166666666666664,1582.0
41.25396825396825,1586.0
37.34126984126984,1577.0
33.42857142857143,1572.0
29.952380952380953,1565.0
26.476190476190478,1563.0
23.0,1573.0
19.666666666666668,1574.0
16.333333333333332,1571.0
13.0,1556.0
11.083333333333334,1553.0
9.166666666666666,1552.0
7.25,1551.0
5.333333333333333,1545.0
5.222222222222222,1531.0
5.111111111111111,1536.0
5.0,1550.0
6.285714285714286,1550.0
7.571428571428571,1555.0
8.857142857142858,1553.0
17.960317460317462,1544.0
27.063492063492063,1517.0
36.166666666666664,1507.0
46.3968253968254,1493.0
56.62698412698413,1499.0
66.85714285714286,1504.0
68.47619047619048,1504.0
70.0952380952381,1509.0
71.71428571428571,1510.0
73.33333333333333,1509.5
70.41666666666666,1509.0
67.5,1505.0
65.73214285714286,1507.0
63.964285714285715,1502.0
62.19642857142857,1502.0
60.42857142857143,1503.0
59.11904761904762,1510.0
57.80952380952381,1506.0
56.5,1502.0
56.0,1497.0
55.5,1497.0
55.0,1492.0
53.791666666666664,1487.0
52.58333333333333,1483.5
51.375,1483.0
50.166666666666664,1473.0
47.44444444444444,1475.0
44.72222222222222,1479.0
42.0,1476.5
38.904761904761905,1474.0
35.80952380952381,1469.0
32.714285714285715,1469.0
30.30952380952381,1465.0
27.904761904761905,1464.0
25.5,1462.0
23.333333333333332,1456.0
21.166666666666668,1460.0
19.0,1470.0
16.833333333333332,1473.0
14.666666666666668,1464.0
12.5,1452.5
11.125,1445.0
9.75,1446.0
8.375,1457.0
7.0,1454.0
9.380952380952381,1466.0
11.761904761904763,1458.0
14.142857142857142,1448.0
25.92857142857143,1437.5
37.714285714285715,1427.0
49.5,1414.0
59.476190476190474,1411.0
69.45238095238095,1410.0
79.42857142857143,1415.0
80.39682539682539,1422.0
81.36507936507937,1426.0
82.33333333333333,1430.5
80.0,1437.0
77.66666666666666,1441.0
75.33333333333333,1435.0
73.03571428571428,1444.0
70.73809523809524,1450.0
68.44047619047619,1457.0
66.14285714285714,1474.0
63.7063492063492,1475.0
61.26984126984127,1462.0
58.833333333333336,1471.0
57.36507936507937,1466.0
55.8968253968254,1467.5
54.42857142857143,1469.0
52.779761904761905,1463.0
51.13095238095238,1454.0
49.48214285714286,1466.0
47.833333333333336,1466.0
44.72222222222222,1464.0
41.611111111111114,1469.0
38.5,1476.0
35.19047619047619,1474.0
31.880952380952383,1477.0
28.571428571428573,1475.0
25.825396825396826,1479.0
23.07936507936508,1480.0
20.333333333333332,1472.0
17.698412698412696,1474.0
15.063492063492063,1481.0
12.428571428571429,1484.0
10.738095238095239,1475.0
9.047619047619047,1476.5
7.357142857142858,1478.0
5.666666666666667,1465.0
5.333333333333334,1458.0
5.0,1463.0
6.25,1476.0
7.5,1485.0
8.75,1497.0
10.0,1496.0
20.5,1492.0
31.0,1468.0
41.5,1452.0
52.42857142857143,1445.0
63.35714285714286,1437.0
74.28571428571429,1433.0
76.52380952380953,1444.0
78.76190476190476,1447.0
81.0,1470.5
79.05555555555556,1483.0
77.11111111111111,1490.0
75.16666666666667,1480.0
73.19642857142858,1481.5
71.22619047619048,1483.0
69.25595238095238,1480.0
67.28571428571429,1493.0
65.02380952380953,1509.0
62.761904761904766,1515.0
60.5,1509.0
59.523809523809526,1506.0
58.547619047619044,1503.0
57.57142857142857,1502.0
56.047619047619044,1495.0
54.523809523809526,1495.0
53.0,1496.0
50.22222222222222,1509.0
47.44444444444444,1507.5
44.666666666666664,1511.0
42.17857142857143,1518.0
39.69047619047619,1524.0
37.20238095238095,1527.0
34.714285714285715,1525.5
31.753968253968253,1524.0
28.793650793650794,1534.0
25.833333333333332,1548.0
23.22222222222222,1553.0
20.61111111111111,1558.0
18.0,1576.0
15.38888888888889,1592.0
12.777777777777779,1596.0
10.166666666666666,1604.0
8.5,1608.0
6.833333333333334,1605.0
5.166666666666667,1590.0
5.125,1585.0
5.083333333333334,1586.0
5.041666666666667,1593.0
5.0,1596.0
7.222222222222221,1606.0
9.444444444444443,1596.0
11.666666666666666,1592.0
22.77777777777778,1566.0
33.88888888888889,1553.5
45.0,1541.0
55.0,1527.0
65.0,1532.0
75.0,1538.0
75.94444444444444,1552.0
76.88888888888889,1560.0
77.83333333333333,1558.0
75.91071428571428,1553.5
73.98809523809524,1544.0
72.06547619047619,1538.0
70.14285714285714,1535.0
67.48412698412699,1539.0
64.82539682539682,1536.0
62.166666666666664,1537.0
60.25396825396825,1530.0
58.34126984126984,1527.0
56.42857142857143,1535.0
55.3968253968254,1538.0
54.36507936507937,1539.0
53.333333333333336,1536.5
51.77777777777778,1534.0
50.22222222222222,1533.0
48.666666666666664,1529.0
46.67857142857143,1528.0
44.69047619047619,1523.0
42.70238095238095,1510.0
40.714285714285715,1513.0
38.03174603174603,1509.0
35.34920634920635,1503.0
32.666666666666664,1499.0
30.444444444444443,1487.0
28.22222222222222,1487.0
26.0,1488.0
23.944444444444443,1492.0
21.88888888888889,1487.0
19.833333333333332,1484.0
18.11111111111111,1480.0
16.38888888888889,1471.0
14.666666666666666,1473.0
14.642857142857142,1466.0
14.619047619047619,1469.0
14.595238095238095,1478.0
14.571428571428571,1478.0
23.1031746031746,1469.0
31.634920634920633,1459.0
40.166666666666664,1444.0
53.11111111111111,1429.0
66.05555555555556,1418.0
79.0,1422.0
83.27777777777777,1422.0
87.55555555555556,1434.0
91.83333333333333,1434.0
89.55555555555556,1448.0
87.27777777777777,1454.0
85.0,1456.0
82.57142857142857,1453.0
80.14285714285714,1455.0
77.71428571428572,1466.0
75.28571428571429,1471.0
72.74603174603175,1476.0
70.20634920634922,1478.0
67.66666666666667,1482.0
66.44444444444444,1487.0
65.22222222222223,1480.0
64.0,1475.0
62.5,1472.0
61.0,1476.0
59.5,1477.0
56.72222222222222,1474.0
53.94444444444444,1470.0
51.166666666666664,1471.0
48.55357142857143,1474.0
45.94047619047619,1478.5
43.32738095238095,1478.0
40.714285714285715,1482.0
37.642857142857146,1480.0
34.57142857142857,1479.0
31.5,1479.5
28.904761904761905,1480.0
26.30952380952381,1484.0
23.714285714285715,1485.0
21.30952380952381,1482.0
18.904761904761905,1485.0
16.5,1478.0
14.555555555555555,1473.0
12.61111111111111,1466.0
10.666666666666666,1469.0
12.25,1475.0
13.833333333333332,1481.0
15.416666666666666,1493.0
17.0,1483.0
29.611111111111114,1466.0
42.22222222222223,1449.0
54.833333333333336,1429.0
66.6984126984127,1430.0
78.56349206349206,1431.0
90.42857142857143,1439.0
91.34126984126985,1446.0
92.25396825396825,1445.0
93.16666666666667,1449.0
90.94444444444444,1453.0
88.72222222222223,1468.0
86.5,1470.0
84.375,1469.0
82.25,1470.0
80.125,1466.0
78.0,1480.0
75.72222222222223,1488.0
73.44444444444444,1496.0
71.16666666666667,1497.0
70.15873015873017,1486.0
69.15079365079364,1482.5
68.14285714285714,1478.0
66.48412698412699,1483.0
64.82539682539682,1476.0
63.166666666666664,1485.0
60.33333333333333,1476.0
57.5,1477.0
54.666666666666664,1479.0
52.17857142857143,1490.0
49.69047619047619,1495.0
47.20238095238095,1493.5
44.714285714285715,1494.0
41.698412698412696,1489.0
38.682539682539684,1494.0
35.666666666666664,1487.0
32.96825396825397,1495.0
30.26984126984127,1504.0
27.571428571428573,1502.0
25.214285714285715,1510.0
22.857142857142858,1522.0
20.5,1525.0
18.5,1512.0
16.5,1503.0
14.5,1495.0
13.267857142857142,1497.0
12.035714285714285,1502.0
10.803571428571429,1508.0
9.571428571428571,1514.0
13.99206349206349,1523.0
18.41269841269841,1515.0
22.833333333333332,1497.0
37.55555555555556,1479.0
52.27777777777778,1460.0
67.0,1464.0
76.22222222222223,1465.0
85.44444444444444,1477.0
94.66666666666667,1482.0
93.55555555555556,1497.0
92.44444444444444,1516.0
91.33333333333333,1520.0
88.96428571428571,1523.0
86.5952380952381,1527.0
84.22619047619048,1532.0
81.85714285714286,1546.0
78.62698412698413,1556.5
75.3968253968254,1567.0
72.16666666666667,1575.0
70.34920634920636,1582.0
68.53174603174602,1574.0
66.71428571428571,1578.0
65.92063492063491,1574.0
65.12698412698413,1578.0
64.33333333333333,1567.0
62.72222222222222,1565.0
61.11111111111111,1567.0
59.5,1566.0
57.125,1572.0
54.75,1567.0
52.375,1570.0
50.0,1561.0
46.833333333333336,1568.0
43.666666666666664,1564.0
40.5,1561.0
38.0,1558.0
35.5,1555.0
33.0,1559.0
30.38888888888889,1545.0
27.77777777777778,1545.5
25.166666666666668,1546.0
22.72222222222222,1546.0
20.27777777777778,1553.0
17.833333333333332,1558.0
15.555555555555555,1553.0
13.277777777777779,1554.0
11.0,1531.0
9.625,1539.0
8.25,1530.0
6.875,1531.5
5.5,1539.0
8.571428571428571,1534.0
11.642857142857142,1528.0
14.714285714285714,1508.0
28.198412698412696,1496.0
41.68253968253968,1484.0
55.166666666666664,1465.0
66.0,1447.0
76.83333333333334,1441.0
87.66666666666667,1444.0
88.25,1445.5
88.83333333333334,1447.0
89.41666666666667,1452.0
90.0,1457.0
86.44444444444444,1469.0
82.88888888888889,1465.0
79.33333333333333,1466.0
75.98412698412699,1467.0
72.63492063492063,1473.5
69.28571428571429,1480.0
67.46825396825398,1481.0
65.65079365079366,1459.0
63.833333333333336,1473.0
63.22222222222222,1461.0
62.611111111111114,1462.0
62.0,1453.0
60.5,1447.0
59.0,1440.0
57.5,1450.0
56.0,1446.0
51.0,1444.0
46.0,1450.0
43.785714285714285,1438.0
41.57142857142857,1438.0
39.35714285714286,1437.0
37.142857142857146,1441.0
34.87301587301587,1432.0
32.6031746031746,1432.0
30.333333333333332,1434.0
28.055555555555554,1434.0
25.77777777777778,1445.0
23.5,1446.0
21.875,1451.0
20.25,1446.0
18.625,1427.0
17.0,1434.0
15.222222222222221,1439.0
13.444444444444445,1447.75
11.666666666666666,1456.5
15.158730158730158,1480.0
18.650793650793652,1467.0
22.142857142857142,1456.0
35.76190476190476,1443.0
49.38095238095238,1429.0
63.0,1410.0
72.94444444444444,1420.0
82.88888888888889,1415.0
92.83333333333333,1420.0
92.51785714285714,1432.0
92.20238095238095,1444.0
91.88690476190476,1461.0
91.57142857142857,1476.0
88.4920634920635,1477.0
85.4126984126984,1477.0
82.33333333333333,1466.0
77.23809523809524,1466.0
72.14285714285714,1466.5
70.31547619047619,1467.0
68.48809523809524,1477.0
66.66071428571428,1487.0
64.83333333333333,1474.0
63.666666666666664,1470.0
62.5,1469.0
61.333333333333336,1451.0
59.892857142857146,1445.0
58.45238095238095,1447.0
57.01190476190476,1456.0
55.57142857142857,1465.0
50.70238095238095,1474.0
45.833333333333336,1489.0
43.339285714285715,1488.0
40.845238095238095,1487.0
38.351190476190474,1483.5
35.857142857142854,1486.0
32.960317460317455,1482.0
30.063492063492063,1483.5
27.166666666666668,1485.0
24.72222222222222,1485.0
22.27777777777778,1480.0
19.833333333333332,1482.0
17.22222222222222,1480.0
14.61111111111111,1495.0
12.0,1507.0
10.0,1502.0
8.0,1509.0
6.0,1496.0
5.714285714285714,1482.0
5.428571428571429,1481.0
5.142857142857143,1484.5
8.773809523809526,1495.0
12.404761904761905,1495.0
16.03571428571429,1492.0
19.666666666666668,1492.0
32.22222222222223,1460.0
44.777777777777786,1448.0
57.333333333333336,1445.0
66.6984126984127,1442.0
76.06349206349206,1448.0
85.42857142857143,1441.0
85.45238095238095,1448.0
85.47619047619048,1464.0
85.5,1465.0
82.71428571428571,1478.0
79.92857142857143,1483.0
77.14285714285714,1479.5
74.73214285714286,1527.0
72.32142857142857,1575.0
69.91071428571428,1615.0
67.5,1645.0
65.27777777777777,1647.0
63.05555555555556,1645.0
60.833333333333336,1641.0
59.46031746031746,1637.0
58.08730158730159,1634.0
56.714285714285715,1623.0
54.420634920634924,1633.0
52.12698412698413,1634.5
49.833333333333336,1636.0
46.22222222222222,1646.0
42.611111111111114,1659.0
39.0,1662.0
36.583333333333336,1661.0
34.166666666666664,1678.0
31.75,1682.0
29.333333333333332,1663.0
27.055555555555554,1654.0
24.77777777777778,1637.0
22.5,1610.0
19.904761904761905,1593.0
17.30952380952381,1575.0
14.714285714285714,1545.0
12.309523809523808,1524.0
9.904761904761905,1501.0
7.5,1492.0
6.666666666666667,1479.0
5.833333333333333,1467.0
5.0,1462.0
5.0,1457.0
5.0,1447.0
5.0,1462.0
5.0,1454.0
7.5,1469.0
10.0,1461.0
12.5,1456.0
24.333333333333336,1454.0
36.16666666666667,1439.0
48.0,1451.0
58.44444444444444,1460.0
68.88888888888889,1459.0
79.33333333333333,1499.0
79.79365079365078,1513.0
80.25396825396825,1524.0
80.71428571428571,1532.0
78.41071428571428,1516.0
76.10714285714286,1511.0
73.80357142857143,1497.0
71.5,1506.0
69.16666666666667,1526.0
66.83333333333333,1543.0
64.5,1548.0
63.095238095238095,1545.0
61.69047619047619,1544.0
60.285714285714285,1531.0
59.74603174603175,1523.0
59.2063492063492,1513.0
58.666666666666664,1506.0
56.87301587301587,1511.0
55.079365079365076,1516.0
53.285714285714285,1510.0
51.04761904761905,1496.0
48.80952380952381,1486.0
46.57142857142857,1473.0
44.333333333333336,1473.0
42.05555555555556,1479.0
39.77777777777778,1495.0
37.5,1508.0
35.333333333333336,1517.5
33.166666666666664,1527.0
31.0,1531.0
28.833333333333332,1525.0
26.666666666666668,1511.0
24.5,1513.0
22.333333333333332,1504.0
20.166666666666668,1510.0
18.0,1521.0
17.208333333333332,1524.0
16.416666666666668,1487.5
15.625,1469.0
14.833333333333334,1472.0
20.27777777777778,1489.0
25.722222222222225,1516.0
31.166666666666668,1522.0
44.77777777777778,1510.5
58.388888888888886,1499.0
72.0,1496.0
79.27777777777777,1495.0
86.55555555555556,1483.0
93.83333333333333,1475.5
92.31746031746032,1468.0
90.8015873015873,1470.0
89.28571428571429,1487.0
87.08928571428572,1495.0
84.89285714285714,1490.0
82.69642857142857,1460.0
80.5,1434.0
77.61111111111111,1454.0
74.72222222222221,1477.0
71.83333333333333,1513.5
69.93650793650794,1520.0
68.03968253968253,1486.0
66.14285714285714,1484.0
65.03968253968253,1484.0
63.93650793650794,1492.0
62.833333333333336,1505.0
60.36507936507937,1498.0
57.8968253968254,1502.0
55.42857142857143,1506.0
52.73809523809524,1499.0
50.04761904761905,1475.0
47.357142857142854,1464.0
44.666666666666664,1434.5
41.83333333333333,1431.0
39.0,1437.0
36.166666666666664,1462.0
33.77777777777778,1486.0
31.38888888888889,1500.0
29.0,1508.0
26.444444444444443,1499.0
23.88888888888889,1476.0
21.333333333333332,1466.0
18.88888888888889,1463.0
16.444444444444443,1476.0
14.0,1473.0
13.0,1458.0
12.0,1437.0
11.0,1427.0
10.0,1437.0
15.277777777777779,1448.0
20.555555555555557,1446.0
25.833333333333332,1451.0
40.55555555555556,1460.0
55.27777777777778,1478.0
70.0,1496.0
78.16666666666667,1524.0
86.33333333333333,1520.0
94.5,1523.0
93.0,1536.0
91.5,1538.0
90.0,1530.0
87.83333333333333,1531.0
85.66666666666666,1524.0
83.5,1522.0
81.33333333333333,1513.0
79.05555555555556,1517.0
76.77777777777777,1524.0
74.5,1517.0
73.14285714285714,1517.0
71.78571428571429,1528.0
70.42857142857143,1569.0
69.89682539682539,1615.0
69.36507936507937,1649.0
68.83333333333333,1666.0
66.36507936507937,1672.0
63.8968253968254,1708.0
61.42857142857143,1759.0
58.32142857142857,1792.0
55.214285714285715,1767.0
52.10714285714286,1734.0
49.0,1680.0
45.27777777777778,1599.0
41.55555555555556,1509.0
37.833333333333336,1462.0
34.26984126984127,1437.0
30.706349206349206,1449.0
27.142857142857142,1465.5
23.761904761904763,1482.0
20.38095238095238,1516.0
17.0,1535.0
13.952380952380953,1563.0
10.904761904761905,1563.0
7.857142857142857,1563.0
7.142857142857142,1574.0
6.428571428571429,1577.0
5.714285714285714,1574.0
5.0,1571.0
5.555555555555555,1572.0
6.111111111111112,1578.5
6.666666666666667,1567.0
15.396825396825395,1563.0
24.126984126984127,1545.0
32.857142857142854,1527.0
46.34920634920635,1511.0
59.841269841269835,1510.0
73.33333333333333,1509.5
77.31746031746032,1509.0
81.3015873015873,1507.0
85.28571428571429,1506.0
82.50595238095238,1501.0
79.72619047619048,1503.0
76.94642857142858,1504.0
74.16666666666667,1493.0
70.61111111111111,1484.0
67.05555555555556,1492.0
63.5,1499.0
61.19047619047619,1497.0
58.88095238095238,1489.0
56.57142857142857,1490.0
55.492063492063494,1491.0
54.41269841269841,1490.0
53.333333333333336,1487.0
51.88888888888889,1492.0
50.44444444444444,1497.0
49.0,1502.0
46.708333333333336,1500.5
44.41666666666667,1499.0
42.125,1503.0
39.833333333333336,1511.0
35.88888888888889,1514.0
31.944444444444446,1515.0
28.0,1497.0
24.523809523809526,1486.0
21.047619047619047,1478.0
17.571428571428573,1486.0
15.492063492063494,1494.0
13.412698412698415,1500.0
11.333333333333334,1492.0
10.126984126984127,1495.0
8.920634920634921,1492.0
7.714285714285714,1489.0
7.2023809523809526,1496.0
6.690476190476191,1502.0
6.178571428571429,1489.0
5.666666666666667,1502.0
13.25,1507.0
20.833333333333332,1502.0
31.33928571428571,1496.0
41.84523809523809,1489.0
52.35119047619047,1488.0
62.857142857142854,1492.0
71.9047619047619,1481.0
80.95238095238095,1490.0
90.0,1494.0
89.14285714285714,1493.0
88.28571428571429,1500.0
87.42857142857143,1502.0
84.39682539682539,1506.0
81.36507936507937,1501.0
78.33333333333333,1502.0
76.25,1506.0
74.16666666666666,1502.0
72.08333333333333,1512.0
70.0,1494.0
67.76190476190476,1474.0
65.52380952380952,1475.0
63.285714285714285,1456.0
61.63492063492063,1446.0
59.98412698412699,1453.0
58.333333333333336,1444.0
55.88888888888889,1447.0
53.44444444444444,1444.0
51.0,1451.0
48.333333333333336,1450.0
45.66666666666667,1444.0
43.0,1448.0
40.333333333333336,1455.0
37.22222222222222,1465.0
34.111111111111114,1469.0
31.0,1460.0
28.666666666666668,1464.0
26.333333333333332,1462.0
24.0,1464.0
21.72222222222222,1462.0
19.444444444444446,1463.0
17.166666666666668,1461.0
20.492063492063494,1467.0
23.817460317460316,1476.0
27.142857142857142,1482.0
37.48214285714286,1480.0
47.82142857142857,1470.0
58.16071428571429,1460.0
68.5,1456.0
81.41666666666666,1450.0
94.33333333333333,1457.0
93.75,1457.0
93.16666666666666,1464.0
92.58333333333333,1465.0
92.0,1480.0
89.33333333333333,1478.0
86.66666666666667,1476.0
84.0,1472.0
81.0,1475.0
78.0,1487.0
75.0,1489.0
73.20833333333333,1502.0
71.41666666666666,1497.0
69.625,1489.0
67.83333333333333,1495.0
66.5,1492.75
65.16666666666667,1490.5
63.833333333333336,1490.0
62.03174603174603,1479.0
60.230158730158735,1487.0
58.42857142857143,1487.0
55.11904761904762,1488.0
51.80952380952381,1488.0
48.5,1489.0
44.904761904761905,1492.0
41.30952380952381,1488.0
37.714285714285715,1488.0
35.49404761904762,1487.0
33.273809523809526,1482.0
31.053571428571427,1495.0
28.833333333333332,1489.0
26.444444444444443,1489.5
24.055555555555557,1490.0
21.666666666666668,1499.0
19.11111111111111,1495.0
16.555555555555557,1494.0
14.0,1486.5
12.222222222222221,1479.0
10.444444444444445,1481.0
8.666666666666666,1490.0
13.968253968253968,1498.0
19.269841269841272,1493.0
24.571428571428573,1494.0
38.65873015873016,1486.0
52.74603174603175,1467.0
66.83333333333333,1453.0
74.72222222222221,1456.0
82.61111111111111,1457.0
90.5,1461.0
89.80357142857143,1469.0
89.10714285714286,1483.0
88.41071428571428,1487.0
87.71428571428571,1490.0
84.36507936507937,1488.0
81.01587301587301,1485.0
77.66666666666667,1485.0
74.63492063492063,1492.0
71.60317460317461,1493.0
68.57142857142857,1498.0
66.54761904761905,1501.0
64.52380952380952,1494.0
62.5,1492.0
61.388888888888886,1497.0
60.27777777777778,1508.0
59.166666666666664,1486.0
57.44642857142857,1491.0
55.726190476190474,1486.0
54.00595238095238,1491.0
52.285714285714285,1487.0
48.579365079365076,1496.0
44.87301587301587,1500.0
41.166666666666664,1497.0
37.53968253968254,1497.0
33.91269841269841,1494.0
30.285714285714285,1494.0
27.246031746031747,1493.0
24.206349206349206,1489.0
21.166666666666668,1489.0
18.72222222222222,1492.0
16.27777777777778,1495.0
13.833333333333334,1496.0
11.982142857142858,1498.0
10.130952380952381,1497.0
8.279761904761905,1492.0
6.428571428571429,1495.0
5.9523809523809526,1501.0
5.476190476190476,1499.0
5.0,1503.0
5.0,1495.0
5.0,1485.0
5.0,1481.0
5.666666666666667,1488.0
6.333333333333333,1489.0
7.0,1499.0
13.88888888888889,1498.0
20.77777777777778,1492.0
27.666666666666668,1480.0
36.5,1468.0
45.33333333333333,1464.0
54.166666666666664,1466.0
63.0,1458.0
67.77777777777777,1461.0
72.55555555555556,1467.0
77.33333333333333,1479.0
75.26984126984127,1496.0
73.2063492063492,1496.0
71.14285714285714,1497.0
68.59523809523809,1487.0
66.04761904761905,1493.0
63.5,1486.0
61.77777777777778,1500.0
60.05555555555556,1506.0
58.333333333333336,1513.0
57.464285714285715,1511.0
56.595238095238095,1509.0
55.726190476190474,1519.0
54.857142857142854,1532.0
53.62698412698413,1534.0
52.39682539682539,1543.0
51.166666666666664,1547.0
48.682539682539684,1553.0
46.198412698412696,1556.0
43.714285714285715,1545.0
40.476190476190474,1567.0
37.23809523809524,1563.0
34.0,1564.0
31.27777777777778,1569.0
28.555555555555554,1580.0
25.833333333333332,1566.0
24.125,1560.0
22.416666666666664,1558.0
20.708333333333332,1555.0
19.0,1551.0
16.833333333333332,1550.0
14.666666666666668,1553.0
12.5,1550.0
10.476190476190476,1542.0
8.452380952380953,1540.0
6.428571428571429,1545.0
5.9523809523809526,1539.0
5.476190476190476,1539.0
5.0,1534.0
5.555555555555555,1538.0
6.111111111111112,1535.0
6.666666666666667,1538.0
12.428571428571429,1533.0
18.19047619047619,1523.0
23.952380952380953,1505.0
29.714285714285715,1494.0
41.03174603174603,1493.0
52.34920634920635,1492.0
63.666666666666664,1489.5
66.53968253968254,1488.0
69.41269841269842,1490.0
72.28571428571429,1492.0
69.41269841269842,1491.0
66.53968253968254,1489.0
63.666666666666664,1495.0
61.0,1490.0
58.33333333333333,1478.0
55.666666666666664,1482.0
54.607142857142854,1487.0
53.54761904761905,1477.0
52.48809523809524,1478.0
51.42857142857143,1465.0
50.785714285714285,1473.0
50.142857142857146,1462.0
49.5,1464.0
48.285714285714285,1461.0
47.07142857142857,1457.0
45.857142857142854,1467.0
43.682539682539684,1469.0
41.507936507936506,1463.0
39.333333333333336,1467.0
37.05555555555556,1471.0
34.77777777777778,1463.0
32.5,1458.0
31.017857142857142,1463.0
29.535714285714285,1454.0
28.05357142857143,1451.0
26.571428571428573,1451.0
24.825396825396826,1453.0
23.07936507936508,1458.0
21.333333333333332,1464.0
19.65079365079365,1463.0
17.96825396825397,1461.0
16.285714285714285,1451.0
14.912698412698411,1453.0
13.53968253968254,1455.0
12.166666666666666,1456.0
15.055555555555555,1473.0
17.944444444444443,1478.0
20.833333333333332,1472.0
29.553571428571427,1463.0
38.27380952380952,1449.0
46.99404761904762,1430.0
55.714285714285715,1424.0
64.75396825396825,1429.0
73.79365079365078,1437.0
82.83333333333333,1437.0
82.6984126984127,1447.0
82.56349206349206,1453.0
82.42857142857143,1459.0
79.78571428571429,1466.0
77.14285714285714,1466.0
74.5,1458.0
72.5,1465.0
70.5,1469.0
68.5,1476.0
67.41071428571428,1480.0
66.32142857142857,1481.5
65.23214285714286,1478.0
64.14285714285714,1483.0
63.42857142857142,1485.0
62.714285714285715,1482.0
62.0,1481.0
60.285714285714285,1480.0
58.57142857142857,1489.0
56.857142857142854,1486.0
54.07142857142857,1493.0
51.285714285714285,1499.0
48.5,1488.0
45.666666666666664,1494.0
42.833333333333336,1493.0
40.0,1487.0
37.892857142857146,1481.0
35.785714285714285,1487.0
33.67857142857143,1492.0
31.571428571428573,1494.0
29.047619047619047,1496.0
26.523809523809526,1492.0
24.0,1504.0
21.666666666666668,1496.0
19.333333333333332,1495.0
17.0,1494.0
14.88888888888889,1484.0
12.777777777777779,1480.0
10.666666666666666,1484.0
11.222222222222221,1490.0
11.777777777777779,1492.0
12.333333333333334,1497.0
19.857142857142858,1495.0
27.38095238095238,1490.0
34.904761904761905,1467.0
42.42857142857143,1459.0
61.214285714285715,1444.0
80.0,1459.0
82.0,1464.0
84.0,1468.0
86.0,1477.0
88.0,1483.0
85.33333333333333,1487.0
82.66666666666667,1489.0
80.0,1491.0
77.5,1479.0
75.0,1483.0
72.5,1485.0
71.05357142857143,1493.0
69.60714285714286,1499.0
68.16071428571428,1502.0
66.71428571428571,1496.0
64.85714285714286,1495.0
63.0,1495.0
61.785714285714285,1487.0
60.57142857142857,1487.0
59.35714285714286,1488.0
58.142857142857146,1490.0
55.42857142857143,1494.0
52.714285714285715,1491.0
50.0,1487.0
46.833333333333336,1495.0
43.666666666666664,1497.0
40.5,1503.0
38.089285714285715,1497.0
35.67857142857143,1493.0
33.267857142857146,1491.0
30.857142857142858,1495.0
27.960317460317462,1490.0
25.063492063492063,1495.0
22.166666666666668,1495.0
19.349206349206348,1500.0
16.53174603174603,1495.0
13.714285714285714,1496.0
11.365079365079364,1498.0
9.015873015873016,1484.0
6.666666666666667,1478.0
6.166666666666667,1481.0
5.666666666666667,1487.0
5.166666666666667,1492.0
8.982142857142858,1503.0
12.797619047619047,1500.0
16.613095238095237,1501.0
20.428571428571427,1487.0
34.06349206349206,1466.0
47.6984126984127,1455.0
61.333333333333336,1451.0
69.41269841269842,1454.0
77.4920634920635,1463.0
85.57142857142857,1463.0
84.71428571428571,1469.0
83.85714285714286,1474.0
83.0,1486.0
80.5,1476.0
78.0,1473.0
75.5,1480.0
73.66071428571428,1485.0
71.82142857142857,1491.0
69.98214285714286,1488.0
68.14285714285714,1499.0
66.76190476190476,1485.0
65.38095238095238,1479.0
64.0,1484.5
63.142857142857146,1481.0
62.285714285714285,1484.0
61.42857142857143,1487.0
59.34126984126984,1479.0
57.25396825396825,1483.0
55.166666666666664,1481.0
52.166666666666664,1483.0
49.166666666666664,1479.0
46.166666666666664,1494.0
43.01587301587301,1494.0
39.86507936507937,1489.0
36.714285714285715,1487.0
34.702380952380956,1491.0
32.69047619047619,1492.0
30.67857142857143,1490.0
28.666666666666668,1498.0
26.253968253968253,1496.5
23.841269841269842,1495.0
21.428571428571427,1493.0
18.896825396825395,1495.0
16.365079365079364,1503.0
13.833333333333334,1509.0
11.722222222222223,1499.0
9.61111111111111,1498.0
7.5,1503.0
7.619047619047619,1509.0
7.738095238095238,1517.0
7.857142857142857,1526.0
17.57142857142857,1531.0
27.285714285714285,1530.0
37.0,1521.0
51.047619047619044,1513.0
65.09523809523809,1509.0
79.14285714285714,1513.0
82.31547619047619,1517.0
85.48809523809524,1536.0
88.66071428571428,1538.0
91.83333333333333,1540.0
89.44444444444444,1553.0
87.05555555555556,1557.0
84.66666666666667,1551.0
82.5,1554.0
80.33333333333334,1553.0
78.16666666666667,1555.0
76.0,1555.0
73.61111111111111,1560.0
71.22222222222221,1555.0
68.83333333333333,1560.0
67.79365079365078,1548.0
66.75396825396825,1541.0
65.71428571428571,1533.0
64.30952380952381,1530.0
62.904761904761905,1534.0
61.5,1537.0
58.55555555555556,1530.0
55.61111111111111,1533.0
52.666666666666664,1531.0
48.53968253968254,1525.0
44.41269841269841,1526.0
40.285714285714285,1524.0
36.69047619047619,1528.0
33.095238095238095,1521.0
29.5,1511.0
26.571428571428573,1514.0
23.642857142857142,1506.0
20.714285714285715,1506.0
18.61904761904762,1502.0
16.523809523809526,1504.0
14.428571428571429,1500.0
12.333333333333334,1496.0
10.166666666666668,1487.0
8.0,1489.0
5.833333333333333,1486.0
5.65079365079365,1482.0
5.468253968253968,1483.0
5.285714285714286,1494.0
10.8015873015873,1495.0
16.317460317460316,1492.0
21.833333333333332,1480.0
36.507936507936506,1470.0
51.182539682539684,1451.0
65.85714285714286,1444.0
72.30952380952381,1445.0
78.76190476190476,1447.0
85.21428571428572,1444.0
91.66666666666667,1446.0
90.38888888888889,1458.0
89.11111111111111,1456.0
87.83333333333333,1451.0
84.46031746031746,1454.0
81.08730158730158,1451.0
77.71428571428571,1462.0
75.36507936507937,1466.0
73.01587301587301,1464.0
70.66666666666667,1471.0
69.82539682539682,1473.0
68.98412698412699,1471.0
68.14285714285714,1469.0
67.60714285714286,1470.0
67.07142857142857,1469.0
66.53571428571428,1467.0
66.0,1464.0
63.833333333333336,1466.0
61.666666666666664,1466.0
59.5,1476.0
56.19047619047619,1478.0
52.88095238095238,1473.0
49.57142857142857,1466.0
46.38095238095238,1471.0
43.19047619047619,1464.0
40.0,1460.0
37.285714285714285,1461.0
34.57142857142857,1465.0
31.857142857142858,1465.0
29.851190476190474,1466.0
27.845238095238095,1471.0
25.839285714285715,1469.0
23.833333333333332,1470.0
21.61111111111111,1473.0
19.38888888888889,1476.0
17.166666666666668,1462.0
15.396825396825397,1453.0
13.626984126984128,1463.0
11.857142857142858,1458.0
16.293650793650794,1467.0
20.73015873015873,1480.0
25.166666666666668,1485.0
40.3968253968254,1472.0
55.62698412698413,1459.0
70.85714285714286,1440.0
76.89285714285714,1428.0
82.92857142857143,1443.0
88.96428571428572,1447.0
95.0,1462.0
94.27777777777777,1460.0
93.55555555555556,1458.0
92.83333333333333,1460.5
90.88888888888889,1472.0
88.94444444444444,1470.0
87.0,1469.0
84.88888888888889,1467.0
82.77777777777779,1475.0
80.66666666666667,1479.0
79.20634920634922,1484.0
77.74603174603175,1483.0
76.28571428571429,1487.0
75.71428571428572,1477.0
75.14285714285714,1470.0
74.57142857142857,1476.0
74.0,1476.0
72.5,1479.0
71.0,1481.0
69.5,1481.0
66.66666666666667,1486.0
63.833333333333336,1490.0
61.0,1487.0
58.111111111111114,1487.0
55.22222222222222,1487.0
52.333333333333336,1495.0
49.74603174603175,1479.0
47.15873015873016,1491.0
44.57142857142857,1490.0
42.55357142857143,1480.0
40.535714285714285,1495.0
38.51785714285714,1486.0
36.5,1490.0
34.111111111111114,1499.0
31.72222222222222,1488.0
29.333333333333332,1485.0
27.03174603174603,1475.0
24.730158730158728,1480.0
22.428571428571427,1473.0
21.174603174603174,1485.0
19.92063492063492,1488.0
18.666666666666668,1497.0
24.634920634920636,1499.0
30.6031746031746,1499.0
36.57142857142857,1489.0
46.095238095238095,1470.0
55.61904761904762,1467.0
65.14285714285714,1460.0
74.66666666666667,1463.0
80.83333333333334,1455.0
87.0,1466.0
93.16666666666667,1472.0
92.5873015873016,1484.0
92.0079365079365,1482.0
91.42857142857143,1490.0
89.45238095238095,1490.0
87.47619047619048,1489.0
85.5,1485.0
83.33333333333333,1499.0
81.16666666666667,1503.0
79.0,1503.0
77.91666666666667,1513.0
76.83333333333334,1510.0
75.75,1508.0
74.66666666666667,1506.0
72.91666666666667,1515.0
71.16666666666667,1514.0
69.33928571428572,1516.0
67.51190476190476,1517.0
65.68452380952381,1524.0
63.857142857142854,1528.0
60.404761904761905,1539.0
56.95238095238095,1546.0
53.5,1545.0
50.095238095238095,1545.0
46.69047619047619,1538.0
43.285714285714285,1545.0
40.88095238095238,1553.0
38.476190476190474,1557.0
36.07142857142857,1549.0
33.666666666666664,1543.0
30.833333333333332,1553.0
28.0,1549.0
25.166666666666668,1553.0
22.444444444444446,1552.5
19.72222222222222,1552.0
17.0,1550.0
14.5,1538.0
12.0,1531.0
9.5,1521.0
8.333333333333334,1546.0
7.166666666666666,1532.0
6.0,1535.0
10.875,1543.0
15.75,1542.0
20.625,1538.0
25.5,1517.0
38.666666666666664,1509.0
51.83333333333333,1496.0
65.0,1502.0
72.33333333333333,1503.0
79.66666666666667,1504.0
87.0,1502.0
86.05555555555556,1507.0
85.11111111111111,1510.0
84.16666666666667,1508.0
81.5873015873016,1512.0
79.0079365079365,1502.0
76.42857142857143,1501.0
74.17460317460318,1507.0
71.92063492063492,1507.0
69.66666666666667,1514.0
68.875,1516.0
68.08333333333334,1509.0
67.29166666666667,1503.0
66.5,1502.0
65.66666666666667,1503.0
64.83333333333333,1505.0
64.0,1498.0
61.44444444444444,1497.0
58.88888888888889,1491.0
56.333333333333336,1495.0
52.84126984126984,1498.0
49.34920634920635,1486.0
45.857142857142854,1489.0
43.43452380952381,1485.0
41.01190476190476,1483.0
38.58928571428571,1475.0
36.166666666666664,1484.0
33.5,1472.0
30.833333333333332,1475.0
28.166666666666668,1467.0
25.492063492063494,1477.0
22.817460317460316,1471.0
20.142857142857142,1465.0
17.539682539682538,1471.0
14.936507936507937,1468.0
12.333333333333334,1470.0
10.174603174603174,1463.0
8.015873015873016,1456.0
5.857142857142857,1456.0
6.267857142857142,1454.0
6.678571428571429,1453.0
7.089285714285714,1459.0
7.5,1461.0
15.888888888888888,1454.0
24.277777777777775,1452.0
32.666666666666664,1437.0
47.11111111111111,1419.0
61.55555555555556,1417.0
76.0,1429.0
81.94444444444444,1430.0
87.88888888888889,1437.0
93.83333333333333,1445.0
92.55555555555556,1451.0
91.27777777777777,1452.0
90.0,1462.0
88.375,1458.0
86.75,1462.0
85.125,1465.0
83.5,1480.0
81.88888888888889,1480.0
80.27777777777779,1480.0
78.66666666666667,1479.0
77.73015873015873,1478.0
76.7936507936508,1477.0
75.85714285714286,1472.0
74.73809523809524,1471.0
73.61904761904762,1471.0
72.5,1473.0
69.57142857142857,1468.0
66.64285714285714,1472.0
63.714285714285715,1469.0
60.660714285714285,1466.0
57.60714285714286,1467.0
54.55357142857143,1480.0
51.5,1481.0
48.0,1481.0
44.5,1484.0
41.0,1474.5
37.57142857142857,1474.0
34.142857142857146,1482.0
30.714285714285715,1480.0
27.53174603174603,1482.0
24.34920634920635,1489.5
21.166666666666668,1497.0
18.20634920634921,1494.0
15.246031746031747,1493.0
12.285714285714286,1491.0
10.190476190476192,1477.0
8.095238095238095,1475.0
6.0,1461.0
5.916666666666667,1474.0
5.833333333333334,1483.0
5.75,1483.0
5.666666666666667,1492.0
12.968253968253968,1493.0
20.26984126984127,1477.0
27.571428571428573,1469.0
42.32539682539682,1441.0
57.079365079365076,1447.0
71.83333333333333,1455.0
78.98412698412699,1459.0
86.13492063492063,1459.0
93.28571428571429,1464.0
92.69047619047619,1469.0
92.0952380952381,1468.0
91.5,1480.0
89.83333333333333,1477.0
88.16666666666667,1478.0
86.5,1479.0
84.91071428571428,1479.0
83.32142857142857,1483.0
81.73214285714286,1495.0
80.14285714285714,1501.0
78.81746031746032,1487.0
77.4920634920635,1492.0
76.16666666666667,1487.0
75.01587301587301,1488.0
73.86507936507937,1482.0
72.71428571428571,1486.0
70.66071428571428,1480.0
68.60714285714286,1487.0
66.55357142857143,1487.0
64.5,1486.0
60.94444444444444,1495.0
57.38888888888889,1494.0
53.833333333333336,1501.0
50.07936507936508,1495.0
46.32539682539682,1494.0
42.57142857142857,1487.0
39.214285714285715,1493.0
35.857142857142854,1495.0
32.5,1494.0
29.285714285714285,1497.0
26.071428571428573,1495.0
22.857142857142858,1499.0
20.68452380952381,1505.0
18.511904761904763,1516.0
16.339285714285715,1513.0
14.166666666666666,1505.0
11.944444444444445,1499.0
9.722222222222221,1497.0
7.5,1508.0
6.9523809523809526,1520.0
6.404761904761904,1530.0
5.857142857142857,1545.0
12.571428571428571,1545.0
19.285714285714285,1538.0
26.0,1525.0
40.142857142857146,1515.0
54.28571428571429,1513.0
68.42857142857143,1503.0
75.84126984126985,1509.0
83.25396825396825,1523.0
90.66666666666667,1528.0
90.27777777777779,1546.0
89.88888888888889,1553.0
89.5,1556.0
88.125,1553.0
86.75,1553.0
85.375,1553.0
84.0,1549.0
81.83333333333333,1554.0
79.66666666666667,1560.0
77.5,1562.0
76.14285714285714,1555.0
74.78571428571429,1557.0
73.42857142857143,1552.0
72.5297619047619,1550.0
71.63095238095238,1553.0
70.73214285714286,1548.0
69.83333333333333,1543.0
66.08333333333333,1544.0
62.333333333333336,1547.0
59.32142857142857,1544.0
56.30952380952381,1544.0
53.29761904761905,1543.0
50.285714285714285,1536.0
46.46825396825397,1531.0
42.65079365079365,1521.0
38.833333333333336,1527.0
35.46031746031746,1531.0
32.08730158730159,1524.5
28.714285714285715,1518.0
25.642857142857142,1523.0
22.571428571428573,1518.0
19.5,1525.0
16.72222222222222,1536.0
13.944444444444443,1516.0
11.166666666666666,1518.0
9.696428571428571,1503.0
8.226190476190476,1502.0
6.7559523809523805,1509.0
5.285714285714286,1503.0
5.634920634920634,1516.0
5.984126984126984,1525.0
6.333333333333333,1522.0
14.650793650793652,1521.0
22.96825396825397,1506.0
31.285714285714285,1492.0
44.63492063492063,1477.0
57.98412698412698,1494.0
71.33333333333333,1495.5
76.0,1497.0
80.66666666666666,1500.0
85.33333333333333,1512.0
84.35714285714286,1518.0
83.38095238095238,1532.0
82.4047619047619,1530.0
81.42857142857143,1537.0
79.11904761904762,1543.0
76.80952380952381,1557.0
74.5,1572.0
73.0,1596.0
71.5,1604.0
70.0,1619.0
69.66666666666667,1628.0
69.33333333333333,1640.0
69.0,1647.0
68.38888888888889,1654.0
67.77777777777779,1658.0
67.16666666666667,1668.0
65.41071428571429,1684.0
63.65476190476191,1699.0
61.898809523809526,1711.0
60.142857142857146,1725.0
56.92857142857143,1735.0
53.714285714285715,1742.0
50.5,1757.0
47.333333333333336,1763.0
44.166666666666664,1763.0
41.0,1778.0
37.77777777777778,1763.0
34.55555555555556,1770.0
31.333333333333332,1764.0
28.11111111111111,1763.0
24.88888888888889,1752.0
21.666666666666668,1764.0
19.285714285714285,1764.0
16.904761904761905,1749.0
14.523809523809524,1742.0
12.142857142857142,1735.0
9.928571428571429,1738.0
7.714285714285714,1745.0
5.5,1759.0
10.428571428571427,1752.0
15.357142857142856,1732.0
20.285714285714285,1713.0
34.69047619047619,1698.0
49.095238095238095,1676.0
63.5,1655.0
72.72222222222223,1635.0
81.94444444444444,1632.0
91.16666666666667,1639.0
91.16071428571429,1655.0
91.1547619047619,1664.0
91.14880952380952,1657.0
91.14285714285714,1659.0
87.81746031746032,1669.0
84.4920634920635,1663.0
81.16666666666667,1687.0
77.25396825396825,1696.5
73.34126984126985,1706.0
69.42857142857143,1707.0
66.45238095238095,1712.0
63.476190476190474,1705.0
60.5,1708.0
58.44444444444444,1712.0
56.38888888888889,1727.0
54.333333333333336,1727.0
51.0,1736.0
47.66666666666667,1739.0
44.333333333333336,1743.0
41.0,1734.0
34.27777777777778,1728.0
27.555555555555557,1708.0
20.833333333333332,1694.5
15.88888888888889,1672.0
10.944444444444445,1653.0
6.0,1645.0
5.666666666666667,1620.0
5.333333333333333,1613.0
5.0,1606.0
5.0,1561.0
5.0,1534.0
5.0,1521.0
5.642857142857142,1516.0
6.285714285714286,1509.0
6.928571428571429,1489.0
7.571428571428571,1480.0
15.49206349206349,1462.0
23.41269841269841,1438.0
31.333333333333332,1429.0
42.12698412698413,1430.5
52.92063492063492,1393.0
63.714285714285715,1342.0
67.75396825396825,1310.0
71.79365079365078,1285.0
75.83333333333333,1289.0
75.22222222222221,1294.0
74.61111111111111,1275.0
74.0,1242.0
73.35714285714286,1209.0
72.71428571428572,1169.0
72.07142857142857,1181.0
71.42857142857143,1195.0
71.34126984126985,1193.0
71.25396825396825,1188.0
71.16666666666667,1182.0
71.34920634920636,1178.0
71.53174603174602,1203.0
71.71428571428571,1229.0
70.30952380952381,1241.0
68.9047619047619,1255.0
67.5,1261.0
65.27777777777777,1267.0
63.05555555555556,1270.0
60.833333333333336,1277.0
59.16071428571429,1295.0
57.48809523809524,1292.0
55.81547619047619,1293.0
54.142857142857146,1294.0
52.37301587301587,1278.0
50.60317460317461,1268.0
48.833333333333336,1274.0
46.65079365079365,1267.0
44.46825396825397,1255.0
42.285714285714285,1266.0
41.579365079365076,1291.0
40.87301587301587,1317.0
40.166666666666664,1334.0
45.83333333333333,1352.0
51.5,1368.0
57.166666666666664,1370.0
63.660714285714285,1364.0
70.1547619047619,1368.0
76.64880952380952,1372.0
83.14285714285714,1380.0
86.31746031746032,1390.0
89.4920634920635,1401.0
92.66666666666667,1415.0
91.63492063492063,1427.0
90.60317460317461,1429.0
89.57142857142857,1430.0
87.26984126984127,1432.0
84.96825396825398,1434.0
82.66666666666667,1450.0
80.61111111111111,1466.0
78.55555555555556,1481.0
76.5,1490.0
75.26785714285714,1475.0
74.03571428571428,1469.0
72.80357142857143,1474.0
71.57142857142857,1474.0
69.82539682539682,1471.0
68.07936507936508,1483.0
66.33333333333333,1481.0
63.317460317460316,1492.0
60.3015873015873,1483.0
57.285714285714285,1491.5
54.13492063492063,1491.75
50.98412698412699,1492.0
47.833333333333336,1499.0
45.38888888888889,1494.0
42.94444444444444,1487.0
40.5,1498.0
38.55357142857143,1496.0
36.60714285714286,1486.0
34.660714285714285,1486.0
32.714285714285715,1485.0
28.773809523809526,1488.0
24.833333333333332,1485.0
22.982142857142854,1483.0
21.13095238095238,1480.0
19.279761904761905,1473.0
17.428571428571427,1474.0
15.174603174603174,1482.0
12.920634920634921,1483.0
10.666666666666666,1473.0
9.11111111111111,1471.0
7.555555555555555,1469.0
6.0,1475.0
7.964285714285714,1480.0
9.928571428571429,1475.0
11.892857142857142,1473.0
13.857142857142858,1483.0
30.3452380952381,1446.0
46.833333333333336,1432.0
53.19642857142858,1416.0
59.55952380952381,1408.0
65.92261904761905,1401.0
72.28571428571429,1403.0
71.8015873015873,1412.5
71.31746031746032,1436.0
70.83333333333333,1445.0
68.05555555555556,1447.0
65.27777777777777,1440.0
62.5,1439.0
60.73214285714286,1452.0
58.964285714285715,1451.5
57.19642857142857,1451.0
55.42857142857143,1462.0
53.952380952380956,1451.0
52.476190476190474,1447.0
51.0,1451.0
49.214285714285715,1457.0
47.42857142857143,1454.0
45.86309523809524,1457.0
44.29761904761905,1460.0
42.732142857142854,1468.0
41.166666666666664,1471.0
38.388888888888886,1463.0
35.611111111111114,1462.0
32.833333333333336,1467.0
30.696428571428573,1468.0
28.55952380952381,1469.0
26.422619047619047,1469.0
24.285714285714285,1462.0
22.023809523809522,1456.0
19.761904761904763,1464.0
17.5,1473.0
15.380952380952381,1476.5
13.261904761904763,1480.0
11.142857142857142,1482.0
9.428571428571429,1479.0
7.7142857142857135,1484.0
6.0,1488.0
5.666666666666667,1480.0
5.333333333333333,1480.0
5.0,1482.0
5.0,1490.0
5.0,1473.0
5.0,1479.0
5.0,1475.0
5.0,1471.0
5.0,1480.0
6.035714285714286,1482.0
7.071428571428571,1492.0
8.107142857142858,1504.0
9.142857142857142,1502.0
17.20634920634921,1501.0
25.269841269841272,1486.0
33.333333333333336,1481.0
40.55555555555556,1476.0
47.77777777777778,1466.0
55.0,1454.0
55.32142857142857,1458.0
55.64285714285714,1463.0
55.964285714285715,1470.0
56.285714285714285,1473.0
51.976190476190474,1480.0
47.666666666666664,1483.0
46.07142857142857,1487.0
44.476190476190474,1482.0
42.88095238095238,1479.0
41.285714285714285,1493.0
40.023809523809526,1496.0
38.76190476190476,1497.0
37.5,1494.0
36.77777777777778,1492.0
36.05555555555556,1493.0
35.333333333333336,1494.0
33.88888888888889,1500.0
32.44444444444444,1498.0
31.0,1498.0
29.375,1503.0
27.75,1502.0
26.125,1505.0
24.5,1512.0
22.428571428571427,1506.0
20.357142857142858,1500.0
18.285714285714285,1505.0
16.57936507936508,1502.0
14.873015873015872,1498.0
13.166666666666666,1491.0
11.777777777777777,1494.5
10.38888888888889,1488.0
9.0,1489.0
8.142857142857142,1494.0
7.285714285714286,1494.5
6.428571428571429,1495.0
5.571428571428571,1494.0
5.3809523809523805,1499.0
5.190476190476191,1487.0
5.0,1487.0
5.0,1494.0
5.0,1492.0
5.041666666666667,1481.0
5.083333333333334,1485.0
5.125,1486.0
5.166666666666667,1482.0
7.5,1485.5
9.833333333333332,1473.0
12.166666666666666,1475.0
18.96825396825397,1466.0
25.76984126984127,1453.0
32.57142857142857,1454.0
36.1031746031746,1451.0
39.63492063492063,1453.0
43.166666666666664,1455.0
41.58928571428571,1459.0
40.01190476190476,1473.0
38.43452380952381,1473.0
36.857142857142854,1482.0
34.51587301587301,1487.0
32.17460317460317,1475.0
29.833333333333332,1486.0
28.944444444444443,1495.0
28.055555555555557,1495.0
27.166666666666668,1486.0
26.875,1485.0
26.583333333333336,1483.0
26.291666666666668,1478.0
26.0,1485.0
25.5,1490.0
25.0,1492.0
24.5,1486.0
23.047619047619047,1486.0
21.595238095238095,1492.0
20.142857142857142,1495.0
18.650793650793652,1498.0
17.158730158730158,1495.0
15.666666666666666,1487.0
14.61111111111111,1488.0
13.555555555555555,1496.0
12.5,1497.0
11.571428571428571,1494.0
10.642857142857142,1487.0
9.714285714285714,1490.0
8.809523809523808,1490.0
7.904761904761904,1492.0
7.0,1493.0
6.333333333333333,1489.0
5.666666666666667,1497.0
5.0,1501.0
5.0,1496.0
5.0,1487.0
5.0,1486.0
5.0,1485.0
5.0,1482.0
5.0,1476.0
5.0,1487.0
6.0,1482.0
7.0,1473.0
8.0,1487.0
13.333333333333332,1492.0
18.666666666666664,1491.0
24.0,1477.0
28.333333333333332,1458.0
32.666666666666664,1457.0
37.0,1452.0
36.083333333333336,1469.0
35.16666666666667,1462.0
34.25,1469.0
33.333333333333336,1480.0
30.833333333333336,1479.0
28.333333333333332,1487.0
25.833333333333332,1490.0
24.984126984126984,1495.0
24.134920634920633,1499.0
23.285714285714285,1501.0
23.634920634920633,1502.0
23.984126984126984,1487.0
24.333333333333332,1492.0
24.03174603174603,1492.0
23.730158730158728,1489.0
23.428571428571427,1495.0
22.654761904761905,1500.0
21.88095238095238,1506.0
21.107142857142854,1510.0
20.333333333333332,1501.0
19.22222222222222,1498.0
18.11111111111111,1506.0
17.0,1508.0
16.0,1509.0
15.0,1506.5
14.0,1502.0
13.277777777777779,1502.5
12.555555555555555,1503.0
11.833333333333334,1501.0
11.174603174603176,1509.0
10.515873015873016,1503.0
9.857142857142858,1511.0
9.392857142857142,1494.0
8.928571428571429,1493.0
8.464285714285715,1487.0
8.0,1501.0
7.444444444444445,1488.0
6.888888888888888,1495.0
6.333333333333333,1494.0
5.936507936507937,1489.0
5.5396825396825395,1490.0
5.142857142857143,1490.0
5.8730158730158735,1491.0
6.603174603174603,1502.0
7.333333333333333,1493.0
12.222222222222221,1497.0
17.11111111111111,1497.5
22.0,1498.0
25.708333333333336,1475.0
29.416666666666668,1456.0
33.125,1462.0
36.833333333333336,1451.0
36.05555555555556,1469.0
35.27777777777778,1473.0
34.5,1481.0
31.523809523809526,1487.0
28.547619047619047,1489.5
25.571428571428573,1491.0
24.714285714285715,1509.0
23.857142857142858,1507.0
23.0,1502.0
23.523809523809526,1500.0
24.047619047619047,1493.0
24.571428571428573,1487.0
24.595238095238095,1492.0
24.61904761904762,1491.0
24.642857142857146,1494.5
24.666666666666668,1498.0
23.666666666666668,1502.0
22.666666666666668,1504.0
21.666666666666668,1502.0
20.53968253968254,1504.0
19.41269841269841,1500.0
18.285714285714285,1507.0
17.46825396825397,1512.0
16.650793650793652,1505.0
15.833333333333334,1505.0
15.317460317460318,1495.0
14.801587301587302,1494.0
14.285714285714286,1494.0
13.839285714285715,1504.0
13.392857142857142,1505.0
12.946428571428571,1500.0
12.5,1499.0
12.0,1498.0
11.5,1500.0
11.0,1494.0
10.476190476190476,1488.0
9.952380952380953,1479.0
9.428571428571429,1486.0
9.119047619047619,1492.0
8.80952380952381,1486.0
8.5,1488.0
10.047619047619047,1485.0
11.595238095238095,1487.0
13.142857142857142,1481.0
17.19047619047619,1486.0
21.238095238095237,1487.0
25.285714285714285,1476.0
29.333333333333332,1458.0
32.888888888888886,1445.0
36.44444444444444,1448.0
40.0,1446.0
38.04761904761905,1456.0
36.095238095238095,1461.0
34.142857142857146,1473.0
31.373015873015873,1475.0
28.603174603174605,1474.0
25.833333333333332,1480.0
25.555555555555554,1483.0
25.27777777777778,1497.0
25.0,1497.0
25.666666666666668,1486.0
26.333333333333336,1490.0
27.0,1477.0
27.666666666666668,1473.0
27.5,1480.0
27.333333333333336,1484.0
27.166666666666668,1495.0
25.96825396825397,1499.0
24.769841269841272,1508.0
23.571428571428573,1506.0
22.436507936507937,1499.0
21.301587301587304,1497.0
20.166666666666668,1506.0
19.492063492063494,1505.0
18.817460317460316,1502.0
18.142857142857142,1499.0
17.69047619047619,1500.0
17.238095238095237,1491.0
16.785714285714285,1495.0
16.333333333333332,1493.0
15.888888888888888,1494.0
15.444444444444445,1490.0
15.0,1505.0
14.523809523809524,1497.0
14.047619047619047,1495.0
13.571428571428571,1498.0
13.214285714285714,1490.0
12.857142857142858,1488.0
12.5,1491.0
12.476190476190476,1497.0
12.452380952380953,1485.0
12.428571428571429,1487.0
14.821428571428571,1484.0
17.214285714285715,1489.0
19.607142857142858,1494.0
22.0,1495.0
30.416666666666668,1476.0
38.833333333333336,1453.0
39.94642857142857,1444.0
41.05952380952381,1442.0
42.17261904761905,1441.0
43.285714285714285,1464.0
40.24603174603175,1478.0
37.2063492063492,1476.5
34.166666666666664,1477.0
32.25396825396825,1473.0
30.34126984126984,1487.0
28.428571428571427,1494.0
28.82142857142857,1482.0
29.214285714285715,1475.0
29.607142857142858,1472.0
30.0,1472.0
30.555555555555557,1483.0
31.11111111111111,1480.5
31.666666666666668,1478.0
30.825396825396826,1480.0
29.984126984126984,1490.0
29.142857142857142,1491.0
27.928571428571427,1491.0
26.714285714285715,1497.0
25.5,1497.0
24.714285714285715,1496.0
23.928571428571427,1495.0
23.142857142857142,1488.0
22.773809523809526,1482.0
22.404761904761905,1489.0
22.035714285714285,1491.0
21.666666666666668,1495.0
21.27777777777778,1500.0
20.88888888888889,1504.0
20.5,1495.0
20.095238095238095,1485.0
19.69047619047619,1490.0
19.285714285714285,1495.0
18.746031746031747,1494.0
18.206349206349206,1493.0
17.666666666666668,1487.0
17.206349206349206,1487.0
16.746031746031747,1489.0
16.285714285714285,1487.0
16.922619047619047,1486.0
17.55952380952381,1502.0
18.19642857142857,1497.0
18.833333333333332,1493.0
23.72222222222222,1497.0
28.61111111111111,1471.0
33.5,1452.0
38.38095238095238,1438.0
43.261904761904766,1441.0
48.142857142857146,1442.0
46.817460317460316,1454.0
45.492063492063494,1461.0
44.166666666666664,1463.0
40.82539682539682,1470.5
37.48412698412699,1478.0
34.142857142857146,1485.0
33.56547619047619,1490.0
32.98809523809524,1492.0
32.410714285714285,1489.0
31.833333333333332,1489.0
32.666666666666664,1485.0
33.5,1480.0
34.333333333333336,1478.0
34.12698412698413,1480.0
33.920634920634924,1480.0
33.714285714285715,1487.0
32.36507936507937,1499.0
31.015873015873016,1497.0
29.666666666666668,1493.0
28.444444444444446,1493.0
27.22222222222222,1493.0
26.0,1494.0
25.5,1490.5
25.0,1487.0
24.5,1492.0
24.0,1482.0
23.444444444444443,1502.0
22.88888888888889,1503.0
22.333333333333332,1500.0
21.698412698412696,1498.0
21.063492063492063,1500.0
20.428571428571427,1488.0
20.007936507936506,1497.0
19.58730158730159,1496.0
19.166666666666668,1495.0
18.73015873015873,1491.0
18.293650793650794,1483.5
17.857142857142858,1477.0
17.571428571428573,1483.0
17.285714285714285,1486.0
17.0,1483.0
18.083333333333332,1497.0
19.166666666666664,1496.0
20.25,1495.0
21.333333333333332,1497.0
27.41269841269841,1494.0
33.492063492063494,1480.0
39.57142857142857,1476.0
43.82539682539682,1456.0
48.07936507936508,1444.0
52.333333333333336,1448.0
50.07936507936508,1451.0
47.82539682539682,1473.0
45.57142857142857,1486.0
43.42857142857143,1485.0
41.285714285714285,1480.0
39.14285714285714,1486.0
37.0,1487.0
36.66666666666667,1489.0
36.333333333333336,1483.0
36.892857142857146,1478.0
37.45238095238095,1478.0
38.01190476190476,1473.5
38.57142857142857,1469.0
38.269841269841265,1469.0
37.96825396825397,1470.0
37.666666666666664,1479.0
36.39682539682539,1485.0
35.12698412698413,1487.0
33.857142857142854,1487.5
33.01785714285714,1494.0
32.17857142857143,1500.0
31.339285714285715,1494.0
30.5,1492.0
29.333333333333336,1488.0
28.166666666666668,1491.0
27.625,1487.0
27.083333333333336,1497.0
26.541666666666668,1487.0
26.0,1487.0
25.444444444444443,1490.0
24.88888888888889,1487.5
24.333333333333332,1485.0
23.88888888888889,1483.0
23.444444444444443,1490.0
23.0,1497.0
22.555555555555557,1491.5
22.11111111111111,1488.0
21.666666666666668,1497.0
21.375,1495.0
21.083333333333336,1492.0
20.791666666666668,1482.0
20.5,1484.0
22.047619047619047,1494.0
23.595238095238095,1490.0
25.142857142857142,1491.0
31.928571428571427,1482.0
38.714285714285715,1466.0
45.5,1455.0
50.19047619047619,1443.0
54.88095238095238,1440.0
59.57142857142857,1440.0
57.76190476190476,1440.0
55.95238095238095,1463.0
54.142857142857146,1468.0
52.333333333333336,1480.0
47.91666666666667,1496.0
43.5,1480.0
43.01785714285714,1482.0
42.535714285714285,1487.0
42.05357142857143,1491.0
41.57142857142857,1487.0
42.047619047619044,1486.0
42.523809523809526,1481.0
43.0,1485.0
42.476190476190474,1486.0
41.952380952380956,1488.0
41.42857142857143,1489.0
40.17460317460318,1492.0
38.92063492063492,1495.0
37.666666666666664,1496.0
36.61111111111111,1496.0
35.55555555555556,1499.0
34.5,1497.0
33.69642857142857,1495.0
32.89285714285714,1507.0
32.089285714285715,1495.0
31.285714285714285,1495.0
30.246031746031747,1492.0
29.206349206349206,1489.0
28.166666666666668,1495.0
27.34920634920635,1490.0
26.53174603174603,1499.0
25.714285714285715,1498.0
24.865079365079367,1502.0
24.015873015873016,1496.5
23.166666666666668,1488.0
22.5,1489.0
21.833333333333336,1488.0
21.166666666666668,1484.0
20.767857142857146,1482.0
20.36904761904762,1480.0
19.970238095238095,1477.0
19.571428571428573,1480.0
19.380952380952383,1483.0
19.19047619047619,1480.0
19.0,1491.0
22.238095238095237,1496.0
25.476190476190478,1495.0
28.714285714285715,1487.0
36.920634920634924,1495.0
45.12698412698413,1473.5
53.333333333333336,1450.0
56.55555555555556,1452.0
59.77777777777778,1454.0
63.0,1467.0
60.57142857142857,1473.0
58.14285714285714,1477.0
55.714285714285715,1481.0
53.285714285714285,1480.0
50.69047619047619,1485.0
48.095238095238095,1480.0
45.5,1492.0
45.476190476190474,1491.5
45.452380952380956,1491.0
45.42857142857143,1502.0
45.61904761904762,1492.0
45.80952380952381,1479.0
46.0,1482.0
45.166666666666664,1467.0
44.333333333333336,1476.0
43.5,1482.0
42.19642857142857,1484.0
40.89285714285714,1490.0
39.589285714285715,1498.0
38.285714285714285,1490.0
36.857142857142854,1493.0
35.42857142857143,1494.0
34.0,1495.0
32.904761904761905,1494.0
31.80952380952381,1492.0
30.714285714285715,1498.0
29.753968253968253,1504.0
28.793650793650794,1496.0
27.833333333333332,1489.0
27.22222222222222,1504.0
26.61111111111111,1486.0
26.0,1497.0
25.392857142857142,1486.0
24.785714285714285,1490.0
24.17857142857143,1488.0
23.571428571428573,1490.0
22.769841269841272,1499.0
21.96825396825397,1487.0
21.166666666666668,1482.0
20.53968253968254,1483.0
19.91269841269841,1490.0
19.285714285714285,1487.0
19.023809523809522,1488.0
18.761904761904763,1490.0
18.5,1497.0
22.61111111111111,1487.0
26.72222222222222,1484.5
30.833333333333332,1482.0
38.26785714285714,1489.0
45.70238095238095,1473.0
53.13690476190476,1448.0
60.57142857142857,1442.0
63.93650793650794,1435.0
67.3015873015873,1440.0
70.66666666666667,1447.0
66.5873015873016,1457.0
62.50793650793651,1465.0
58.42857142857143,1467.0
55.730158730158735,1469.0
53.03174603174603,1471.0
50.333333333333336,1474.5
50.72222222222222,1483.0
51.111111111111114,1482.0
51.5,1476.0
51.98214285714286,1473.0
52.464285714285715,1475.0
52.94642857142857,1477.0
53.42857142857143,1476.0
52.3968253968254,1481.0
51.36507936507937,1476.0
50.333333333333336,1486.0
48.26984126984127,1485.0
46.20634920634921,1491.0
44.142857142857146,1489.0
42.42857142857143,1499.0
40.714285714285715,1496.0
39.0,1499.0
37.72222222222222,1495.0
36.44444444444444,1492.0
35.166666666666664,1499.0
34.30357142857143,1499.0
33.44047619047619,1503.0
32.57738095238095,1504.0
31.714285714285715,1502.0
30.642857142857142,1498.5
29.571428571428573,1495.0
28.5,1499.0
27.61904761904762,1496.0
26.738095238095237,1493.0
25.857142857142858,1501.0
24.960317460317462,1499.0
24.063492063492063,1499.0
23.166666666666668,1497.0
22.61111111111111,1495.0
22.055555555555557,1494.0
21.5,1509.0
21.375,1516.0
21.25,1524.0
21.125,1527.0
21.0,1524.0
26.666666666666668,1512.0
32.333333333333336,1509.0
38.0,1501.0
49.42857142857143,1489.5
60.85714285714286,1478.0
72.28571428571429,1462.0
75.13492063492063,1462.0
77.98412698412699,1457.0
80.83333333333333,1466.0
76.5,1472.0
72.16666666666666,1475.0
67.83333333333333,1482.0
65.66071428571428,1473.0
63.48809523809524,1484.0
61.31547619047619,1481.0
59.142857142857146,1490.0
59.07142857142857,1484.0
59.0,1490.0
59.035714285714285,1473.0
59.07142857142857,1475.0
59.10714285714286,1480.0
59.142857142857146,1472.0
57.595238095238095,1469.0
56.04761904761905,1472.0
54.5,1475.0
52.5,1470.0
50.5,1476.0
48.5,1476.0
47.160714285714285,1462.0
45.82142857142857,1467.0
44.48214285714286,1463.0
43.142857142857146,1467.0
41.65079365079365,1473.0
40.15873015873016,1461.0
38.666666666666664,1471.0
37.25396825396825,1467.0
35.84126984126984,1471.0
34.42857142857143,1471.0
33.11904761904762,1469.0
31.80952380952381,1471.0
30.5,1472.0
29.444444444444443,1478.0
28.38888888888889,1483.0
27.333333333333332,1479.0
26.428571428571427,1484.0
25.523809523809526,1477.0
24.61904761904762,1487.0
23.714285714285715,1477.0
22.42063492063492,1477.0
21.126984126984127,1474.0
19.833333333333332,1472.0
21.26984126984127,1480.0
22.706349206349206,1483.0
24.142857142857142,1488.0
35.317460317460316,1481.0
46.49206349206349,1473.0
57.666666666666664,1443.0
67.77777777777777,1432.0
77.88888888888889,1439.0
88.0,1444.0
86.71428571428572,1454.0
85.42857142857143,1464.0
84.14285714285714,1472.0
82.85714285714286,1478.0
74.42857142857143,1478.5
66.0,1479.0
64.85714285714286,1478.0
63.714285714285715,1473.0
62.57142857142857,1481.0
61.42857142857143,1484.0
61.84126984126984,1480.0
62.25396825396825,1479.0
62.666666666666664,1471.0
62.0,1466.0
61.33333333333333,1459.0
60.666666666666664,1461.0
58.92857142857143,1477.0
57.19047619047619,1478.0
55.45238095238095,1470.0
53.714285714285715,1478.0
51.03174603174603,1468.0
48.34920634920635,1466.0
45.666666666666664,1468.0
43.2063492063492,1468.5
40.74603174603175,1469.0
38.285714285714285,1473.0
36.13492063492063,1476.0
33.98412698412698,1476.0
31.833333333333332,1466.0
30.27777777777778,1476.0
28.72222222222222,1471.0
27.166666666666668,1479.0
26.125,1482.0
25.083333333333336,1487.0
24.041666666666668,1483.0
23.0,1487.0
21.333333333333332,1491.0
19.666666666666668,1482.0
18.0,1485.0
16.523809523809526,1484.0
15.047619047619047,1487.0
13.571428571428571,1490.0
12.936507936507937,1487.0
12.3015873015873,1487.5
11.666666666666666,1488.0
17.555555555555554,1486.0
23.444444444444443,1481.0
29.333333333333332,1478.0
40.785714285714285,1481.0
52.23809523809524,1453.5
63.69047619047619,1430.0
75.14285714285714,1427.0
80.98412698412699,1442.0
86.82539682539682,1449.0
92.66666666666667,1458.0
87.20634920634922,1458.0
81.74603174603175,1460.0
76.28571428571429,1460.0
72.19047619047619,1458.0
68.0952380952381,1464.0
64.0,1468.0
64.0,1481.0
64.0,1478.0
64.0,1474.0
64.32142857142857,1472.25
64.64285714285714,1470.5
64.96428571428572,1469.0
65.28571428571429,1473.0
62.72619047619048,1484.0
60.166666666666664,1493.0
57.910714285714285,1496.0
55.654761904761905,1503.0
53.398809523809526,1512.0
51.142857142857146,1509.0
48.317460317460316,1518.0
45.492063492063494,1507.0
42.666666666666664,1513.0
40.5,1515.0
38.33333333333333,1508.0
36.166666666666664,1513.0
34.76785714285714,1515.0
33.36904761904762,1514.0
31.970238095238095,1511.75
30.571428571428573,1509.5
29.158730158730158,1509.0
27.746031746031747,1511.0
26.333333333333332,1507.0
24.166666666666664,1502.0
22.0,1493.0
20.916666666666668,1498.0
19.833333333333336,1502.0
18.75,1501.0
17.666666666666668,1499.0
16.38888888888889,1496.0
15.111111111111112,1488.0
13.833333333333334,1493.0
14.410714285714286,1494.0
14.988095238095237,1498.0
15.56547619047619,1497.0
16.142857142857142,1495.0
34.48809523809524,1497.0
52.833333333333336,1471.0
66.07936507936508,1447.0
79.32539682539682,1446.5
92.57142857142857,1446.0
91.4702380952381,1446.0
90.36904761904762,1447.0
89.26785714285714,1459.0
88.16666666666667,1468.0
83.05555555555556,1471.0
77.94444444444444,1478.0
72.83333333333333,1479.0
71.23214285714286,1480.0
69.63095238095238,1475.0
68.0297619047619,1482.0
66.42857142857143,1494.5
67.13095238095238,1495.0
67.83333333333333,1493.0
67.36507936507937,1491.0
66.89682539682539,1484.0
66.42857142857143,1488.0
64.77976190476191,1486.0
63.13095238095238,1491.5
61.48214285714286,1497.0
59.833333333333336,1499.0
57.38888888888889,1496.0
54.94444444444444,1506.0
52.5,1503.0
50.333333333333336,1508.0
48.166666666666664,1502.0
46.0,1502.0
44.5,1506.0
43.0,1503.5
41.5,1500.0
40.0,1500.0
38.61904761904762,1495.0
37.238095238095234,1492.0
35.857142857142854,1487.0
34.51587301587301,1496.0
33.17460317460317,1495.0
31.833333333333332,1494.0
30.27777777777778,1496.0
28.72222222222222,1496.0
27.166666666666668,1496.0
25.77777777777778,1502.0
24.38888888888889,1491.0
23.0,1487.0
21.833333333333332,1482.0
20.666666666666668,1480.0
19.5,1487.0
22.38095238095238,1486.0
25.261904761904763,1480.0
28.142857142857142,1489.0
38.523809523809526,1492.0
48.90476190476191,1486.0
59.28571428571429,1468.0
69.66666666666667,1452.0
78.0,1446.0
86.33333333333334,1448.0
94.66666666666667,1451.0
91.68253968253968,1459.0
88.6984126984127,1469.0
85.71428571428571,1473.0
81.14285714285714,1480.0
76.57142857142857,1473.0
72.0,1484.0
71.0,1490.0
70.0,1490.0
69.0,1490.0
69.25,1486.0
69.5,1483.0
69.75,1485.0
70.0,1474.0
69.38888888888889,1480.0
68.77777777777779,1490.0
68.16666666666667,1490.0
65.82539682539684,1492.0
63.48412698412699,1490.0
61.142857142857146,1496.0
58.595238095238095,1489.0
56.04761904761905,1499.0
53.5,1497.0
51.38095238095238,1500.0
49.261904761904766,1495.0
47.142857142857146,1495.0
45.85714285714286,1490.0
44.57142857142857,1501.0
43.285714285714285,1495.0
42.0,1490.0
40.44444444444444,1504.0
38.88888888888889,1500.0
37.333333333333336,1498.0
35.55555555555556,1507.0
33.77777777777778,1505.0
32.0,1504.0
29.88888888888889,1502.0
27.77777777777778,1509.0
25.666666666666668,1502.0
24.301587301587304,1493.0
22.936507936507937,1494.0
21.571428571428573,1487.0
21.011904761904763,1490.0
20.452380952380953,1493.0
19.892857142857142,1497.0
19.333333333333332,1499.0
24.055555555555554,1497.0
28.77777777777778,1493.0
33.5,1494.0
47.952380952380956,1482.0
62.40476190476191,1466.0
76.85714285714286,1439.0
82.57142857142857,1442.0
88.28571428571429,1443.0
94.0,1454.0
90.33333333333333,1462.0
86.66666666666667,1478.0
83.0,1480.0
80.29166666666667,1475.0
77.58333333333334,1476.0
74.875,1484.0
72.16666666666667,1482.0
71.83333333333334,1480.0
71.5,1490.0
71.16666666666667,1494.0
71.44444444444444,1486.0
71.72222222222223,1479.0
72.0,1489.0
71.11111111111111,1478.0
70.22222222222221,1483.0
69.33333333333333,1481.0
66.98412698412699,1488.0
64.63492063492063,1490.0
62.285714285714285,1491.5
60.54761904761905,1492.0
58.80952380952381,1499.0
57.07142857142857,1502.0
55.333333333333336,1502.0
53.611111111111114,1489.0
51.888888888888886,1500.0
50.166666666666664,1490.0
48.58730158730159,1490.5
47.007936507936506,1491.0
45.42857142857143,1493.0
43.785714285714285,1497.0
42.142857142857146,1495.0
40.5,1501.0
38.80952380952381,1498.0
37.11904761904762,1504.0
35.42857142857143,1496.0
34.404761904761905,1502.0
33.38095238095238,1501.0
32.357142857142854,1490.0
31.333333333333332,1489.0
30.27777777777778,1495.0
29.22222222222222,1493.0
28.166666666666668,1494.0
28.158730158730158,1491.0
28.150793650793652,1495.0
28.142857142857142,1497.0
36.817460317460316,1493.0
45.492063492063494,1493.0
54.166666666666664,1486.0
66.44444444444444,1479.0
78.72222222222223,1463.0
91.0,1444.5
91.125,1454.0
91.25,1461.0
91.375,1469.0
91.5,1473.0
87.72222222222223,1483.0
83.94444444444444,1475.0
80.16666666666667,1481.0
77.82539682539682,1482.0
75.48412698412699,1481.0
73.14285714285714,1504.0
73.09523809523809,1492.0
73.04761904761905,1494.0
73.0,1480.0
72.71428571428571,1477.0
72.42857142857143,1470.0
72.14285714285714,1476.0
70.98214285714286,1481.0
69.82142857142857,1491.0
68.66071428571428,1495.0
67.5,1492.0
65.5,1500.0
63.5,1504.0
61.5,1505.0
59.476190476190474,1504.0
57.452380952380956,1501.0
55.42857142857143,1499.0
53.8968253968254,1495.0
52.36507936507937,1498.0
50.833333333333336,1493.0
49.55555555555556,1495.0
48.27777777777778,1497.0
47.0,1495.0
45.875,1495.0
44.75,1502.0
43.625,1494.0
42.5,1496.0
40.94444444444444,1497.0
39.38888888888889,1497.0
37.833333333333336,1497.0
36.507936507936506,1492.0
35.182539682539684,1488.0
33.857142857142854,1499.0
32.84920634920635,1483.0
31.84126984126984,1486.0
30.833333333333332,1491.0
34.17460317460317,1486.0
37.51587301587301,1487.0
40.857142857142854,1490.0
50.01785714285714,1488.0
59.17857142857143,1475.0
68.33928571428572,1458.0
77.5,1450.0
83.22222222222223,1444.0
88.94444444444444,1453.0
94.66666666666667,1462.0
92.06349206349206,1468.0
89.46031746031747,1472.0
86.85714285714286,1476.0
83.51587301587301,1477.0
80.17460317460318,1476.0
76.83333333333333,1476.0
76.31746031746032,1477.0
75.8015873015873,1487.0
75.28571428571429,1490.0
75.46428571428572,1488.5
75.64285714285714,1484.0
75.82142857142857,1481.0
76.0,1480.0
75.38888888888889,1485.0
74.77777777777779,1501.0
74.16666666666667,1497.0
71.96825396825398,1504.0
69.76984126984127,1506.0
67.57142857142857,1503.0
65.54761904761905,1502.0
63.523809523809526,1499.0
61.5,1496.0
59.80952380952381,1492.0
58.11904761904762,1501.0
56.42857142857143,1497.0
55.36309523809524,1494.0
54.29761904761905,1501.5
53.232142857142854,1502.0
52.166666666666664,1506.0
50.888888888888886,1508.0
49.611111111111114,1496.0
48.333333333333336,1504.0
46.93650793650794,1495.0
45.539682539682545,1494.0
44.142857142857146,1492.0
42.595238095238095,1487.0
41.04761904761905,1493.0
39.5,1490.0
38.0,1487.0
36.5,1485.0
35.0,1488.5
35.041666666666664,1492.0
35.08333333333333,1497.0
35.125,1491.0
35.166666666666664,1497.0
42.888888888888886,1479.0
50.611111111111114,1480.0
58.333333333333336,1463.0
69.31746031746032,1444.0
80.3015873015873,1438.0
91.28571428571429,1449.0
91.41269841269842,1455.0
91.53968253968254,1461.0
91.66666666666667,1468.0
88.25396825396825,1469.0
84.84126984126985,1476.0
81.42857142857143,1477.0
80.23809523809524,1473.0
79.04761904761905,1472.0
77.85714285714286,1480.0
76.66666666666667,1487.0
76.94444444444444,1485.0
77.22222222222223,1492.0
77.5,1484.0
77.28571428571429,1474.0
77.07142857142857,1486.0
76.85714285714286,1481.0
75.12698412698413,1487.0
73.3968253968254,1487.0
71.66666666666667,1493.0
69.77777777777779,1495.0
67.88888888888889,1499.0
66.0,1502.0
64.27777777777777,1502.0
62.55555555555556,1499.0
60.833333333333336,1496.0
59.75,1499.0
58.66666666666667,1501.0
57.583333333333336,1494.0
56.5,1496.0
55.19047619047619,1496.0
53.88095238095238,1504.0
52.57142857142857,1501.0
51.15873015873016,1502.0
49.74603174603175,1499.0
48.333333333333336,1508.0
46.88888888888889,1511.0
45.44444444444444,1503.0
44.0,1497.0
43.0,1494.0
42.0,1495.0
41.0,1494.0
40.0,1489.0
38.94444444444444,1488.0
37.88888888888889,1490.0
36.833333333333336,1500.0
41.84126984126984,1498.0
46.84920634920635,1494.0
51.857142857142854,1487.0
63.51587301587301,1478.0
75.17460317460316,1458.0
86.83333333333333,1447.0
89.03174603174602,1453.0
91.23015873015873,1451.0
93.42857142857143,1458.0
90.5079365079365,1468.0
87.5873015873016,1470.0
84.66666666666667,1472.0
82.66666666666667,1472.0
80.66666666666667,1472.0
78.66666666666667,1477.0
78.60714285714286,1480.0
78.54761904761905,1484.0
78.48809523809524,1490.0
78.42857142857143,1480.0
78.39682539682539,1475.0
78.36507936507937,1473.0
78.33333333333333,1476.0
76.93650793650794,1480.0
75.53968253968253,1477.0
74.14285714285714,1478.5
72.73214285714286,1480.0
71.32142857142857,1487.0
69.91071428571428,1488.0
68.5,1491.5
66.08333333333333,1490.0
63.666666666666664,1485.0
62.42857142857143,1489.0
61.19047619047619,1483.0
59.95238095238095,1484.0
58.714285714285715,1486.0
57.25396825396825,1486.0
55.7936507936508,1490.0
54.333333333333336,1480.0
52.93650793650794,1480.0
51.539682539682545,1490.0
50.142857142857146,1484.0
48.595238095238095,1486.0
47.04761904761905,1487.0
45.5,1490.5
44.5,1494.0
43.5,1490.0
42.5,1482.5
41.5,1481.0
40.19047619047619,1477.0
38.88095238095238,1487.0
37.57142857142857,1493.0
39.1031746031746,1492.0
40.63492063492063,1497.0
42.166666666666664,1490.0
52.3015873015873,1491.0
62.43650793650794,1479.0
72.57142857142857,1466.0
79.88095238095238,1454.0
87.19047619047619,1451.0
94.5,1450.0
92.83333333333333,1466.0
91.16666666666667,1469.0
89.5,1473.0
87.19642857142857,1475.0
84.89285714285714,1484.0
82.58928571428572,1487.0
80.28571428571429,1483.0
79.52380952380953,1482.0
78.76190476190476,1490.0
78.0,1486.0
78.38095238095238,1487.0
78.76190476190476,1485.0
79.14285714285714,1477.0
78.59523809523809,1475.0
78.04761904761905,1476.0
77.5,1479.0
75.55555555555556,1486.0
73.61111111111111,1489.0
71.66666666666667,1501.0
70.10714285714286,1499.0
68.54761904761905,1495.0
66.98809523809524,1491.0
65.42857142857143,1495.0
63.56349206349206,1495.0
61.6984126984127,1489.0
59.833333333333336,1495.0
58.317460317460316,1498.0
56.801587301587304,1500.0
55.285714285714285,1504.0
53.96825396825397,1495.0
52.65079365079365,1498.0
51.333333333333336,1487.0
49.94444444444444,1495.0
48.55555555555556,1490.0
47.166666666666664,1501.0
45.83928571428571,1489.0
44.51190476190476,1497.0
43.18452380952381,1487.0
41.857142857142854,1490.0
40.238095238095234,1484.0
38.61904761904762,1480.0
37.0,1488.0
36.95238095238095,1492.0
36.904761904761905,1499.0
36.857142857142854,1502.0
44.34920634920635,1497.0
51.84126984126984,1486.0
59.333333333333336,1469.0
69.33333333333333,1459.5
79.33333333333333,1450.0
89.33333333333333,1454.0
90.10714285714286,1447.0
90.88095238095238,1454.0
91.6547619047619,1462.0
92.42857142857143,1464.0
89.11904761904762,1472.0
85.80952380952381,1480.0
82.5,1472.0
80.85714285714286,1478.0
79.21428571428571,1484.0
77.57142857142857,1493.0
77.54761904761905,1490.0
77.52380952380952,1480.0
77.5,1479.5
77.27777777777777,1479.0
77.05555555555556,1472.0
76.83333333333333,1477.0
75.625,1485.0
74.41666666666666,1496.5
73.20833333333333,1509.0
72.0,1505.0
69.83333333333333,1511.0
67.66666666666667,1511.0
65.5,1509.0
63.333333333333336,1509.0
61.166666666666664,1502.0
59.0,1506.0
57.0,1514.0
55.0,1509.0
53.0,1506.0
51.5,1518.0
50.0,1521.0
48.5,1537.0
47.30357142857143,1536.0
46.10714285714286,1531.0
44.910714285714285,1532.0
43.714285714285715,1525.0
42.03174603174603,1519.0
40.34920634920635,1503.0
38.666666666666664,1502.0
36.92063492063492,1500.0
35.17460317460318,1506.0
33.42857142857143,1501.0
33.007936507936506,1492.0
32.58730158730159,1499.0
32.166666666666664,1501.0
38.94444444444444,1494.0
45.72222222222222,1494.0
52.5,1482.0
61.160714285714285,1474.0
69.82142857142857,1449.0
78.48214285714286,1443.25
87.14285714285714,1437.5
88.76190476190476,1436.0
90.38095238095238,1450.0
92.0,1450.0
88.42857142857143,1458.0
84.85714285714286,1455.0
81.28571428571429,1449.0
79.57936507936509,1458.0
77.87301587301587,1461.0
76.16666666666667,1474.0
76.27777777777779,1481.0
76.38888888888889,1472.0
76.5,1476.0
76.23214285714286,1472.0
75.96428571428572,1464.0
75.69642857142857,1459.0
75.42857142857143,1462.0
73.23015873015873,1458.0
71.03174603174602,1463.0
68.83333333333333,1478.0
65.98412698412699,1482.0
63.13492063492063,1484.0
60.285714285714285,1490.0
58.41269841269841,1480.0
56.53968253968254,1469.0
54.666666666666664,1454.0
53.5,1455.0
52.33333333333333,1461.0
51.166666666666664,1481.0
49.482142857142854,1505.0
47.79761904761905,1510.0
46.11309523809524,1518.0
44.42857142857143,1509.0
42.285714285714285,1508.0
40.142857142857146,1507.0
38.0,1508.0
36.666666666666664,1502.0
35.333333333333336,1501.0
34.0,1501.0
32.22222222222222,1499.0
30.444444444444446,1500.0
28.666666666666668,1522.0
29.22222222222222,1512.0
29.77777777777778,1518.0
30.333333333333332,1517.0
38.5,1516.0
46.66666666666667,1511.0
54.833333333333336,1491.0
63.0,1476.0
73.16666666666667,1466.0
83.33333333333333,1465.0
93.5,1468.0
91.66666666666667,1484.0
89.83333333333333,1490.0
88.0,1490.0
83.94444444444444,1494.0
79.88888888888889,1497.0
75.83333333333333,1487.0
75.05555555555556,1492.0
74.27777777777777,1497.0
73.5,1495.5
73.80357142857143,1485.0
74.10714285714286,1480.0
74.41071428571428,1477.5
74.71428571428571,1475.0
73.86507936507937,1483.0
73.01587301587301,1480.0
72.16666666666667,1486.0
69.82539682539682,1494.0
67.48412698412699,1496.0
65.14285714285714,1506.0
63.095238095238095,1508.0
61.047619047619044,1495.0
59.0,1501.0
57.166666666666664,1496.0
55.333333333333336,1493.0
53.5,1495.0
51.94642857142857,1503.0
50.39285714285714,1503.0
48.839285714285715,1502.0
47.285714285714285,1502.0
45.523809523809526,1511.0
43.76190476190476,1509.0
42.0,1508.0
40.333333333333336,1515.0
38.666666666666664,1523.0
37.0,1509.0
35.22222222222222,1512.0
33.44444444444444,1503.0
31.666666666666668,1502.0
30.27777777777778,1506.0
28.88888888888889,1513.0
27.5,1504.0
30.589285714285715,1499.0
33.67857142857143,1512.0
36.76785714285714,1502.0
39.857142857142854,1503.0
52.57142857142857,1492.0
65.28571428571428,1475.75
78.0,1459.5
83.33333333333333,1450.0
88.66666666666667,1450.0
94.0,1451.0
90.66666666666667,1454.0
87.33333333333333,1469.0
84.0,1464.0
81.38888888888889,1460.0
78.77777777777779,1446.0
76.16666666666667,1459.0
76.01785714285714,1470.0
75.86904761904762,1481.0
75.7202380952381,1493.0
75.57142857142857,1498.0
75.4920634920635,1497.0
75.4126984126984,1484.0
75.33333333333333,1472.0
73.4126984126984,1477.0
71.4920634920635,1471.0
69.57142857142857,1473.0
67.04761904761905,1474.0
64.52380952380952,1474.0
62.0,1484.0
60.111111111111114,1485.0
58.22222222222222,1490.0
56.333333333333336,1502.0
54.75,1505.0
53.16666666666667,1506.0
51.583333333333336,1495.0
50.0,1507.0
47.833333333333336,1511.0
45.666666666666664,1506.0
43.5,1494.0
41.523809523809526,1502.0
39.547619047619044,1496.0
37.57142857142857,1493.0
35.6031746031746,1495.0
33.63492063492063,1499.0
31.666666666666668,1500.0
29.88888888888889,1488.0
28.11111111111111,1485.0
26.333333333333332,1478.0
24.928571428571427,1481.0
23.523809523809526,1479.0
22.11904761904762,1479.0
20.714285714285715,1485.0
26.023809523809526,1491.0
31.333333333333332,1482.0
41.32142857142857,1487.0
51.30952380952381,1469.0
61.29761904761905,1457.0
71.28571428571429,1444.0
78.91269841269842,1444.0
86.53968253968254,1440.0
94.16666666666667,1447.0
91.44444444444444,1451.0
88.72222222222223,1470.0
86.0,1472.0
83.60714285714286,1474.0
81.21428571428572,1472.0
78.82142857142857,1482.0
76.42857142857143,1487.5
76.06349206349206,1487.25
75.6984126984127,1487.0
75.33333333333333,1475.0
75.46031746031746,1474.0
75.58730158730158,1466.0
75.71428571428571,1462.0
74.80952380952381,1453.0
73.9047619047619,1446.0
73.0,1444.0
73.22222222222223,1443.0
73.44444444444444,1441.0
73.66666666666667,1427.0
75.0,1363.0
76.33333333333334,1335.0
77.66666666666667,1367.0
79.0,1384.0
78.27777777777777,1403.0
77.55555555555556,1399.0
76.83333333333333,1398.0
73.6984126984127,1379.0
70.56349206349206,1388.0
67.42857142857143,1403.0
66.34126984126985,1408.0
65.25396825396825,1391.0
64.16666666666667,1383.0
65.44444444444444,1391.0
66.72222222222223,1384.0
68.0,1379.0
68.21428571428572,1365.0
68.42857142857143,1345.0
68.64285714285714,1348.0
68.85714285714286,1342.0
66.92857142857143,1342.0
65.0,1349.0
68.9047619047619,1379.0
72.80952380952381,1375.0
76.71428571428571,1363.0
81.28571428571428,1369.0
85.85714285714286,1366.0
90.42857142857143,1363.0
95.0,1368.0
94.94444444444444,1378.0
94.88888888888889,1380.0
94.83333333333333,1378.0
93.17460317460318,1382.0
91.51587301587301,1401.0
89.85714285714286,1413.0
87.96031746031747,1424.0
86.06349206349206,1420.0
84.16666666666667,1431.0
83.875,1438.0
83.58333333333334,1442.0
83.29166666666667,1466.0
83.0,1452.0
83.0,1458.0
83.0,1475.0
83.0,1470.0
82.27777777777777,1467.0
81.55555555555556,1471.0
80.83333333333333,1464.0
79.26984126984127,1478.0
77.7063492063492,1464.0
76.14285714285714,1469.0
74.94047619047619,1465.0
73.73809523809524,1461.0
72.53571428571428,1476.0
71.33333333333333,1490.0
69.88888888888889,1469.0
68.44444444444444,1475.0
67.0,1488.0
65.55555555555556,1480.0
64.11111111111111,1479.0
62.666666666666664,1480.0
61.33333333333333,1485.0
60.0,1484.0
58.666666666666664,1483.0
57.785714285714285,1487.0
56.904761904761905,1488.0
56.023809523809526,1483.0
55.142857142857146,1476.0
53.32142857142857,1471.5
51.5,1474.25
52.523809523809526,1477.0
53.547619047619044,1481.0
54.57142857142857,1486.0
59.095238095238095,1466.0
63.61904761904762,1463.0
68.14285714285714,1453.0
72.66666666666667,1443.0
76.83333333333334,1433.0
81.0,1441.0
85.16666666666667,1451.0
84.30357142857143,1458.0
83.44047619047619,1465.0
82.57738095238095,1475.0
81.71428571428571,1480.0
79.1984126984127,1490.0
76.68253968253968,1485.0
74.16666666666667,1488.0
72.79761904761905,1494.0
71.42857142857143,1492.5
71.23809523809524,1491.0
71.04761904761905,1496.0
70.85714285714286,1486.0
70.66666666666667,1485.0
69.61111111111111,1487.0
68.55555555555556,1484.0
67.5,1478.0
65.66666666666667,1483.0
63.833333333333336,1472.0
62.0,1483.0
60.05555555555556,1495.0
58.11111111111111,1490.0
56.166666666666664,1490.0
54.682539682539684,1493.5
53.198412698412696,1498.0
51.714285714285715,1501.0
50.660714285714285,1501.5
49.60714285714286,1502.0
48.55357142857143,1492.0
47.5,1502.0
46.22222222222222,1496.0
44.94444444444444,1504.0
43.666666666666664,1501.5
42.34920634920635,1499.0
41.03174603174603,1494.0
39.714285714285715,1487.0
38.976190476190474,1487.0
38.23809523809524,1481.0
37.5,1480.0
41.714285714285715,1492.0
45.92857142857143,1500.0
50.142857142857146,1495.0
55.773809523809526,1486.0
61.40476190476191,1469.0
67.03571428571429,1447.5
72.66666666666667,1452.0
74.72222222222223,1454.0
76.77777777777777,1461.0
78.83333333333333,1476.0
76.84126984126983,1485.0
74.84920634920636,1492.0
72.85714285714286,1490.0
70.96031746031747,1499.0
69.06349206349206,1504.0
67.16666666666667,1515.0
66.4920634920635,1536.0
65.81746031746032,1551.0
65.14285714285714,1560.0
64.94047619047619,1571.0
64.73809523809524,1563.0
64.53571428571428,1567.0
64.33333333333333,1560.0
63.166666666666664,1565.0
62.0,1565.0
60.833333333333336,1566.0
58.88888888888889,1570.0
56.94444444444444,1571.0
55.0,1578.0
52.888888888888886,1575.0
50.77777777777778,1580.0
48.666666666666664,1568.0
47.11111111111111,1569.0
45.55555555555556,1558.0
44.0,1564.0
42.916666666666664,1567.0
41.83333333333333,1556.0
40.75,1556.0
39.666666666666664,1556.0
38.33333333333333,1554.0
37.0,1535.0
35.666666666666664,1536.0
34.492063492063494,1538.0
33.317460317460316,1542.0
32.142857142857146,1553.0
35.15079365079365,1567.0
38.15873015873016,1575.0
41.166666666666664,1564.0
50.01587301587301,1569.0
58.86507936507936,1548.0
67.71428571428571,1538.0
71.11904761904762,1539.0
74.52380952380952,1538.0
77.92857142857142,1535.0
81.33333333333333,1533.0
79.83333333333333,1533.0
78.33333333333333,1531.0
76.83333333333333,1539.0
74.36507936507937,1526.0
71.89682539682539,1531.0
69.42857142857143,1530.0
68.17460317460318,1531.0
66.92063492063492,1538.0
65.66666666666667,1532.0
65.34920634920636,1533.5
65.03174603174602,1535.0
64.71428571428571,1538.0
64.03571428571428,1531.0
63.357142857142854,1527.0
62.67857142857143,1524.0
62.0,1524.0
59.833333333333336,1516.5
57.666666666666664,1522.0
55.5,1512.0
53.0,1524.0
50.5,1510.0
48.0,1518.0
46.0,1523.0
44.0,1517.0
42.0,1525.0
40.19047619047619,1522.0
38.38095238095238,1533.0
36.57142857142857,1521.0
35.095238095238095,1516.0
33.61904761904762,1509.0
32.142857142857146,1507.0
30.666666666666668,1507.0
29.333333333333336,1522.0
28.0,1532.0
26.666666666666668,1520.0
30.96825396825397,1515.0
35.269841269841265,1510.0
39.57142857142857,1512.0
50.26984126984127,1501.0
60.968253968253975,1477.0
71.66666666666667,1467.0
76.87301587301587,1472.0
82.07936507936509,1483.0
87.28571428571429,1479.0
85.85714285714286,1482.0
84.42857142857143,1487.0
83.0,1482.0
81.375,1482.0
79.75,1490.0
78.125,1484.75
76.5,1479.5
74.80952380952381,1481.0
73.11904761904762,1496.0
71.42857142857143,1493.0
70.78571428571429,1487.0
70.14285714285714,1477.0
69.5,1474.0
68.42857142857143,1468.0
67.35714285714286,1471.0
66.28571428571429,1469.0
64.63095238095238,1453.0
62.97619047619048,1444.0
61.32142857142857,1430.0
59.666666666666664,1434.0
57.27777777777778,1437.0
54.888888888888886,1441.0
52.5,1448.0
50.333333333333336,1448.0
48.166666666666664,1445.0
46.0,1447.0
44.05555555555556,1460.0
42.11111111111111,1456.0
40.166666666666664,1465.0
38.39682539682539,1466.0
36.62698412698413,1457.0
34.857142857142854,1447.0
33.851190476190474,1438.0
32.845238095238095,1439.0
31.83928571428571,1438.0
30.833333333333332,1454.0
35.44444444444444,1457.0
40.05555555555556,1466.0
44.666666666666664,1458.0
56.73015873015873,1444.0
68.7936507936508,1419.0
80.85714285714286,1404.0
85.51587301587301,1407.0
90.17460317460318,1401.0
94.83333333333333,1400.0
94.12698412698413,1404.0
93.42063492063491,1406.0
92.71428571428571,1403.0
91.41071428571428,1415.0
90.10714285714286,1416.0
88.80357142857143,1419.5
87.5,1423.0
85.55555555555556,1437.0
83.61111111111111,1444.0
81.66666666666667,1463.0
80.20634920634922,1471.0
78.74603174603175,1471.0
77.28571428571429,1461.0
76.13492063492063,1455.0
74.98412698412699,1457.0
73.83333333333333,1461.0
71.6984126984127,1466.0
69.56349206349206,1470.0
67.42857142857143,1474.0
65.32142857142857,1475.0
63.214285714285715,1480.0
61.10714285714286,1483.0
59.0,1491.5
56.833333333333336,1497.25
54.666666666666664,1503.0
52.5,1512.0
50.523809523809526,1513.0
48.547619047619044,1516.0
46.57142857142857,1518.0
44.769841269841265,1508.0
42.96825396825397,1494.0
41.166666666666664,1480.0
39.11111111111111,1480.0
37.05555555555556,1480.0
35.0,1471.0
33.75,1469.0
32.5,1466.0
31.25,1451.0
30.0,1407.0
27.916666666666664,1382.0
25.833333333333332,1371.0
26.553571428571427,1372.0
27.273809523809526,1400.0
27.99404761904762,1437.0
28.714285714285715,1450.0
38.198412698412696,1463.0
47.682539682539684,1458.0
57.166666666666664,1416.0
67.25396825396825,1364.0
77.34126984126985,1357.0
87.42857142857143,1379.0
88.94642857142857,1422.0
90.46428571428572,1462.0
91.98214285714286,1506.0
93.5,1551.5
92.16666666666667,1567.0
90.83333333333333,1567.0
89.5,1560.0
87.33333333333333,1582.0
85.16666666666667,1594.0
83.0,1609.0
81.33333333333333,1634.0
79.66666666666667,1644.0
78.0,1640.0
77.0952380952381,1643.5
76.19047619047619,1647.0
75.28571428571429,1647.0
73.88095238095238,1647.0
72.47619047619048,1624.0
71.07142857142858,1578.0
69.66666666666667,1528.0
66.77777777777779,1473.0
63.88888888888889,1438.0
61.0,1440.0
58.142857142857146,1496.0
55.285714285714285,1549.0
52.42857142857143,1582.0
50.67460317460318,1585.0
48.92063492063492,1575.0
47.166666666666664,1563.0
45.44444444444444,1562.0
43.72222222222222,1555.0
42.0,1547.0
40.166666666666664,1576.0
38.33333333333333,1596.0
36.5,1598.0
34.666666666666664,1605.0
32.11111111111111,1598.0
29.555555555555554,1585.0
27.0,1560.0
24.80952380952381,1545.0
22.619047619047617,1526.0
20.428571428571427,1509.0
19.285714285714285,1505.0
18.142857142857142,1504.0
17.0,1501.0
21.333333333333332,1511.0
25.666666666666664,1516.0
30.0,1518.0
38.91666666666667,1524.0
47.833333333333336,1520.0
56.75,1516.0
65.66666666666667,1524.0
75.41666666666667,1534.0
85.16666666666667,1537.0
84.73214285714286,1550.0
84.29761904761905,1567.0
83.86309523809524,1575.0
83.42857142857143,1582.0
80.95238095238095,1580.0
78.47619047619048,1575.0
76.0,1569.0
73.42857142857143,1559.0
70.85714285714286,1553.0
68.28571428571429,1547.0
67.50595238095238,1546.0
66.72619047619048,1532.0
65.94642857142858,1516.0
65.16666666666667,1511.0
64.61111111111111,1499.0
64.05555555555556,1495.0
63.5,1487.0
61.38095238095238,1485.0
59.261904761904766,1483.0
57.142857142857146,1481.0
53.98412698412699,1484.0
50.82539682539682,1487.0
47.666666666666664,1478.0
45.11111111111111,1469.0
42.55555555555556,1457.0
40.0,1442.0
38.22222222222222,1422.0
36.44444444444444,1411.0
34.666666666666664,1394.0
33.22222222222222,1374.0
31.777777777777775,1367.0
30.333333333333332,1365.0
29.142857142857142,1387.5
27.952380952380953,1436.0
26.761904761904763,1451.0
25.571428571428573,1470.0
23.658730158730158,1475.0
21.746031746031747,1486.0
19.833333333333332,1486.0
23.174603174603174,1486.0
26.515873015873016,1494.0
29.857142857142858,1495.0
39.51785714285714,1497.0
49.17857142857143,1492.0
58.83928571428571,1471.0
68.5,1451.0
76.77777777777777,1437.0
85.05555555555556,1437.0
93.33333333333333,1431.0
93.26984126984127,1437.0
93.2063492063492,1448.0
93.14285714285714,1460.0
91.59523809523809,1458.0
90.04761904761905,1437.0
88.5,1429.0
86.04761904761905,1433.0
83.59523809523809,1422.0
81.14285714285714,1424.0
79.77380952380952,1439.0
78.4047619047619,1437.0
77.03571428571429,1433.5
75.66666666666667,1430.0
73.5,1432.0
71.33333333333333,1442.0
69.32142857142857,1480.0
67.30952380952381,1504.0
65.29761904761905,1509.0
63.285714285714285,1487.0
60.079365079365076,1429.0
56.87301587301587,1376.0
53.666666666666664,1342.0
50.96825396825397,1368.0
48.269841269841265,1427.0
45.57142857142857,1483.0
43.214285714285715,1531.0
40.857142857142854,1528.0
38.5,1516.0
36.5,1469.0
34.5,1439.0
32.5,1427.0
30.982142857142858,1439.0
29.464285714285715,1470.0
27.94642857142857,1485.0
26.428571428571427,1497.0
24.452380952380953,1512.0
22.476190476190474,1485.0
20.5,1473.0
18.38095238095238,1481.0
16.261904761904763,1471.0
14.142857142857142,1451.0
15.873015873015872,1451.0
17.6031746031746,1444.0
19.333333333333332,1444.0
30.666666666666664,1447.0
42.0,1440.0
53.333333333333336,1436.0
62.10714285714286,1408.0
70.88095238095238,1399.0
79.6547619047619,1389.0
88.42857142857143,1400.0
90.0079365079365,1408.0
91.5873015873016,1419.0
93.16666666666667,1444.0
91.44444444444444,1458.0
89.72222222222223,1467.0
88.0,1485.0
85.61111111111111,1481.0
83.22222222222221,1488.0
80.83333333333333,1487.0
78.44444444444444,1498.0
76.05555555555556,1522.0
73.66666666666667,1530.0
72.5,1527.0
71.33333333333334,1534.0
70.16666666666667,1517.5
69.0,1515.0
67.0,1519.0
65.0,1518.0
63.0,1517.0
59.666666666666664,1514.0
56.333333333333336,1501.0
53.0,1509.0
49.611111111111114,1508.0
46.22222222222222,1517.0
42.833333333333336,1499.0
40.38888888888889,1501.0
37.94444444444444,1501.0
35.5,1480.0
33.625,1454.0
31.75,1451.0
29.875,1442.0
28.0,1455.5
25.555555555555557,1474.0
23.11111111111111,1480.0
20.666666666666668,1486.0
18.253968253968253,1476.0
15.841269841269842,1470.0
13.428571428571429,1460.0
11.174603174603174,1450.0
8.920634920634921,1450.0
6.666666666666667,1444.0
6.111111111111112,1436.0
5.555555555555555,1440.0
5.0,1443.0
7.571428571428571,1444.0
10.142857142857142,1462.0
12.714285714285715,1478.0
15.285714285714286,1469.0
28.523809523809526,1470.0
41.761904761904766,1465.0
55.0,1459.0
65.33333333333333,1444.0
75.66666666666667,1448.0
86.0,1438.0
86.83333333333333,1451.0
87.66666666666667,1466.0
88.5,1467.0
86.33333333333333,1468.0
84.16666666666667,1473.0
82.0,1478.0
79.67857142857143,1481.0
77.35714285714286,1487.0
75.03571428571428,1495.0
72.71428571428571,1498.0
70.1984126984127,1501.0
67.68253968253968,1510.0
65.16666666666667,1527.0
63.682539682539684,1535.0
62.1984126984127,1540.0
60.714285714285715,1539.0
58.25396825396825,1553.0
55.7936507936508,1564.0
53.333333333333336,1571.0
49.77777777777778,1578.0
46.22222222222222,1591.0
42.666666666666664,1605.0
40.07142857142857,1602.0
37.476190476190474,1600.0
34.88095238095238,1598.0
32.285714285714285,1582.0
29.19047619047619,1575.0
26.095238095238095,1575.0
23.0,1578.0
19.857142857142858,1577.0
16.714285714285715,1576.0
13.571428571428571,1576.0
11.269841269841269,1578.0
8.968253968253968,1582.0
6.666666666666667,1584.0
6.111111111111112,1595.0
5.555555555555555,1605.0
5.0,1605.0
5.0,1606.0
5.0,1589.0
5.0,1582.0
5.0,1582.0
5.166666666666667,1580.0
5.333333333333333,1595.0
5.5,1601.0
11.61904761904762,1599.0
17.73809523809524,1591.0
23.857142857142858,1587.0
34.29365079365079,1558.0
44.73015873015873,1541.0
55.166666666666664,1537.0
57.61111111111111,1534.0
60.05555555555556,1528.0
62.5,1539.0
60.19642857142857,1535.0
57.89285714285714,1534.0
55.589285714285715,1527.0
53.285714285714285,1527.0
50.91269841269841,1527.0
48.53968253968254,1512.0
46.166666666666664,1513.0
46.01587301587301,1509.0
45.86507936507937,1512.0
45.714285714285715,1517.0
46.698412698412696,1504.0
47.682539682539684,1509.0
48.666666666666664,1502.0
48.33333333333333,1502.0
48.0,1509.0
47.666666666666664,1508.0
46.25,1500.0
44.83333333333333,1507.0
43.416666666666664,1514.0
42.0,1519.0
39.833333333333336,1503.0
37.666666666666664,1490.0
35.5,1475.0
33.80952380952381,1470.0
32.11904761904762,1463.0
30.428571428571427,1465.0
28.619047619047617,1469.0
26.80952380952381,1463.0
25.0,1461.5
23.166666666666668,1460.0
21.333333333333332,1448.0
19.5,1429.0
18.285714285714285,1415.0
17.071428571428573,1404.0
15.857142857142858,1412.0
19.55952380952381,1429.0
23.261904761904763,1431.0
26.964285714285715,1426.0
30.666666666666668,1431.5
42.730158730158735,1408.0
54.7936507936508,1405.0
66.85714285714286,1407.0
72.62698412698413,1412.0
78.3968253968254,1422.0
84.16666666666667,1426.0
82.94444444444444,1438.0
81.72222222222223,1441.0
